time_ms,ch1_v,ch2_v
9,1.9059,2.5916
255210,1.9067,2.5925
255211,1.9067,2.5916
255212,1.9075,2.5933
255213,1.9067,2.5933
255214,1.9051,2.5916
255215,1.9026,2.5900
255216,1.8986,2.5933
255217,1.9002,2.5900
255218,1.9067,2.5876
255219,1.9034,2.5860
255220,1.9010,2.5868
255221,1.9042,2.5707
255222,1.9002,2.5804
255223,1.9026,2.5796
255224,1.9002,2.5788
255225,1.8970,2.5796
255226,1.9034,2.5812
255227,1.9002,2.5788
255228,1.9002,2.5828
255229,1.9010,2.5836
255230,1.9002,2.5828
255231,1.8994,2.5779
255232,1.9010,2.5812
255233,1.9034,2.5771
255234,1.8978,2.5796
255235,1.8978,2.5771
255236,1.8954,2.5755
255237,1.8970,2.5707
255238,1.8994,2.5715
255239,1.8962,2.5747
255240,1.9010,2.5675
255241,1.8954,2.5675
255242,1.8954,2.5747
255243,1.8994,2.5675
255244,1.8978,2.5683
255245,1.9212,2.5731
255246,1.8994,2.5739
255247,1.8978,2.5675
255248,1.8970,2.5683
255249,1.8978,2.5667
255250,1.8970,2.5659
255251,1.8954,2.5602
255252,1.8962,2.5642
255253,1.8978,2.5618
255254,1.8954,2.5642
255255,1.8978,2.5618
255256,1.8970,2.5586
255257,1.8954,2.5602
255258,1.8954,2.5570
255259,1.8930,2.5618
255260,1.8946,2.5602
255261,1.8954,2.5618
255262,1.8930,2.5634
255263,1.8954,2.5586
255264,1.8954,2.5578
255265,1.9139,2.5586
255266,1.8938,2.5586
255267,1.8954,2.5570
255268,1.8954,2.5530
255269,1.8954,2.5522
255270,1.8954,2.5505
255271,1.8954,2.5522
255272,1.8938,2.5481
255273,1.8954,2.5514
255274,1.8930,2.5522
255275,1.8954,2.5505
255276,1.8954,2.5481
255277,1.9083,2.5538
255278,1.8922,2.5570
255279,1.8905,2.5514
255280,1.8954,2.5522
255281,1.8962,2.5457
255282,1.8881,2.5425
255283,1.8881,2.5433
255284,1.8930,2.5441
255285,1.8930,2.5449
255286,1.8889,2.5449
255287,1.8930,2.5441
255288,1.8905,2.5401
255289,1.8873,2.5441
255290,1.8962,2.5417
255291,1.8865,2.5401
255292,1.8905,2.5401
255293,1.8897,2.5401
255294,1.8905,2.5401
255295,1.8897,2.5425
255296,1.8873,2.5401
255297,1.8881,2.5401
255298,1.8881,2.5401
255299,1.8881,2.5360
255300,1.8930,2.5401
255301,1.8954,2.5401
255302,1.8897,2.5360
255303,1.8849,2.5344
255304,1.8865,2.5377
255305,1.8833,2.5344
255306,1.8881,2.5328
255307,1.8914,2.5328
255308,1.8938,2.5328
255309,1.8905,2.5328
255310,1.8873,2.5360
255311,1.8881,2.5328
255312,1.8865,2.5344
255313,1.8897,2.5296
255314,1.8849,2.5320
255315,1.8841,2.5320
255316,1.9051,2.5296
255317,1.8833,2.5272
255318,1.9042,2.5288
255319,1.8857,2.5296
255320,1.8849,2.5272
255321,1.8841,2.5304
255322,1.8841,2.5280
255323,1.8817,2.5280
255324,1.8825,2.5280
255325,1.8841,2.5272
255326,1.8857,2.5248
255327,1.8825,2.5256
255328,1.8793,2.5272
255329,1.8849,2.5272
255330,1.8801,2.5191
255331,1.8849,2.5272
255332,1.8833,2.5272
255333,1.8704,2.5264
255334,1.8865,2.5272
255335,1.8857,2.5264
255336,1.8825,2.5215
255337,1.8833,2.5215
255338,1.8833,2.5199
255339,1.8849,2.5175
255340,1.8841,2.5256
255341,1.8801,2.5175
255342,1.8801,2.5199
255343,1.8825,2.5191
255344,1.9042,2.5223
255345,1.8817,2.5191
255346,1.8817,2.5223
255347,1.8833,2.5175
255348,1.8664,2.5199
255349,1.8825,2.5143
255350,1.8817,2.5159
255351,1.8905,2.5143
255352,1.8696,2.5151
255353,1.8801,2.5143
255354,1.8817,2.5143
255355,1.8825,2.5159
255356,1.8833,2.5143
255357,1.8817,2.5135
255358,1.8841,2.5143
255359,1.8809,2.5143
255360,1.8833,2.5159
255361,1.8801,2.5135
255362,1.8785,2.5143
255363,1.8825,2.5135
255364,1.8825,2.5143
255365,1.8833,2.5111
255366,1.8801,2.5119
255367,1.8849,2.5143
255368,1.8785,2.5143
255369,1.8785,2.5127
255370,1.8801,2.5103
255371,1.8817,2.5111
255372,1.8833,2.5095
255373,1.8817,2.5143
255374,1.8785,2.5111
255375,1.8760,2.5103
255376,1.8801,2.5127
255377,1.8777,2.5054
255378,1.8801,2.5086
255379,1.8785,2.5070
255380,1.8768,2.5095
255381,1.8728,2.5038
255382,1.8801,2.5054
255383,1.8752,2.5038
255384,1.8793,2.5095
255385,1.8825,2.5054
255386,1.8785,2.5119
255387,1.8801,2.5119
255388,1.8809,2.5086
255389,1.8777,2.5143
255390,1.8768,2.5038
255391,1.8696,2.5030
255392,1.8777,2.5054
255393,1.8777,2.5095
255394,1.8809,2.5054
255395,1.8817,2.5070
255396,1.8801,2.5054
255397,1.8688,2.5054
255398,1.8736,2.5022
255399,1.8777,2.5006
255400,1.8785,2.5014
255401,1.8777,2.4998
255402,1.8801,2.4990
255403,1.8752,2.4974
255404,1.8777,2.4974
255405,1.8744,2.4998
255406,1.8744,2.5014
255407,1.8777,2.5006
255408,1.8777,2.4998
255409,1.8785,2.5014
255410,1.8752,2.5167
255411,1.8752,2.5095
255412,1.8777,2.5022
255413,1.8785,2.4974
255414,1.8744,2.4990
255415,1.8752,2.4958
255416,1.8736,2.4998
255417,1.8768,2.4941
255418,1.8777,2.5070
255419,1.8785,2.4941
255420,1.8785,2.4925
255421,1.8785,2.4966
255422,1.8785,2.4958
255423,1.8704,2.4966
255424,1.8768,2.4941
255425,1.8752,2.4990
255426,1.8801,2.4966
255427,1.8777,2.4909
255428,1.8785,2.4958
255429,1.8809,2.5014
255430,1.8752,2.4885
255431,1.8785,2.4974
255432,1.8825,2.4974
255433,1.8785,2.4909
255434,1.8825,2.4958
255435,1.8777,2.4941
255436,1.8768,2.4974
255437,1.8817,2.4958
255438,1.8825,2.4941
255439,1.8809,2.4941
255440,1.8817,2.4925
255441,1.8777,2.4941
255442,1.8785,2.4917
255443,1.8785,2.4933
255444,1.8752,2.4941
255445,1.8752,2.4966
255446,1.8785,2.4917
255447,1.8785,2.4958
255448,1.8736,2.4933
255449,1.8744,2.4958
255450,1.8785,2.4845
255451,1.8744,2.4941
255452,1.8736,2.5086
255453,1.8744,2.4966
255454,1.8736,2.4958
255455,1.8752,2.5006
255456,1.8752,2.4982
255457,1.8777,2.4941
255458,1.8736,2.4998
255459,1.8752,2.4958
255460,1.8752,2.4966
255461,1.8744,2.4966
255462,1.8777,2.4974
255463,1.8768,2.4974
255464,1.8785,2.4998
255465,1.8809,2.4941
255466,1.8793,2.4974
255467,1.8736,2.4974
255468,1.8720,2.4974
255469,1.8801,2.4861
255470,1.8785,2.5006
255471,1.8768,2.5119
255472,1.8760,2.5014
255473,1.8736,2.4990
255474,1.8801,2.5232
255475,1.8777,2.5070
255476,1.8768,2.5191
255477,1.8865,2.5288
255478,1.8849,2.5328
255479,1.8881,2.5385
255480,1.8825,2.5401
255481,1.8873,2.5409
255482,1.8897,2.5401
255483,1.8849,2.5578
255484,1.8857,2.5401
255485,1.8881,2.5481
255486,1.8914,2.5554
255487,1.8849,2.5659
255488,1.8897,2.5538
255489,1.8881,2.5570
255490,1.8930,2.5659
255491,1.8954,2.5739
255492,1.8938,2.5626
255493,1.8954,2.5409
255494,1.8954,2.5312
255495,1.8962,2.5143
255496,1.8994,2.5401
255497,1.8954,2.5401
255498,1.9010,2.5449
255499,1.8954,2.5505
255500,1.9042,2.5610
255501,1.9067,2.5812
255502,1.9067,2.5788
255503,1.9091,2.5804
255504,1.9099,2.5900
255505,1.9196,2.6005
255506,1.9212,2.6053
255507,1.9212,2.5812
255508,1.9212,2.5514
255509,1.9212,2.5304
255510,1.9171,2.5046
255511,1.9155,2.4869
255512,1.9083,2.4635
255513,1.9131,2.4651
255514,1.9067,2.4716
255515,1.9091,2.4901
255516,1.9107,2.4974
255517,1.9099,2.5086
255518,1.9107,2.5030
255519,1.9091,2.4949
255520,1.9139,2.4966
255521,1.9107,2.4885
255522,1.9107,2.4748
255523,1.9034,2.4619
255524,1.9026,2.4587
255525,1.9034,2.4200
255526,1.8962,2.3999
255527,1.8994,2.3894
255528,1.8946,2.3716
255529,1.8865,2.3386
255530,1.8849,2.3297
255531,1.8825,2.3394
255532,1.8849,2.3467
255533,1.8865,2.3579
255534,1.8841,2.3483
255535,1.8873,2.3378
255536,1.8817,2.3386
255537,1.8817,2.3442
255538,1.8809,2.3410
255539,1.8841,2.3330
255540,1.8768,2.3209
255541,1.8817,2.2943
255542,1.8752,2.2870
255543,1.8688,2.2621
255544,1.8656,2.2540
255545,1.8599,2.2306
255546,1.8607,2.2258
255547,1.8656,2.2314
255548,1.8632,2.2435
255549,1.8672,2.2564
255550,1.8672,2.2629
255551,1.8607,2.2588
255552,1.8623,2.2516
255553,1.8623,2.2564
255554,1.8599,2.2653
255555,1.8672,2.2645
255556,1.8648,2.2548
255557,1.8575,2.2411
255558,1.8551,2.2306
255559,1.8486,2.2137
255560,1.8559,2.1960
255561,1.8527,2.1790
255562,1.8438,2.1662
255563,1.8446,2.1686
255564,1.8438,2.1823
255565,1.8519,2.1927
255566,1.8462,2.2056
255567,1.8519,2.2105
255568,1.8462,2.2073
255569,1.8478,2.2105
255570,1.8551,2.2161
255571,1.8551,2.2314
255572,1.8511,2.2177
255573,1.8527,2.2048
255574,1.8527,2.1927
255575,1.8486,2.1750
255576,1.8446,2.1718
255577,1.8454,2.1428
255578,1.8438,2.1242
255579,1.8349,2.1194
255580,1.8390,2.1234
255581,1.8382,2.1388
255582,1.8414,2.1605
255583,1.8430,2.1742
255584,1.8406,2.1662
255585,1.8438,2.1718
255586,1.8438,2.1734
255587,1.8495,2.1895
255588,1.8527,2.1927
255589,1.8438,2.1895
255590,1.8446,2.1790
255591,1.8438,2.1645
255592,1.8438,2.1508
255593,1.8422,2.1379
255594,1.8358,2.1186
255595,1.8358,2.1057
255596,1.8430,2.1065
255597,1.8414,2.1138
255598,1.8390,2.1299
255599,1.8414,2.1516
255600,1.8358,2.1533
255601,1.8382,2.1533
255602,1.8349,2.1525
255603,1.8390,2.1581
255604,1.8511,2.1694
255605,1.8446,2.1710
255606,1.8454,2.1621
255607,1.8390,2.1541
255608,1.8333,2.1412
255609,1.8398,2.1275
255610,1.8333,2.1178
255611,1.8349,2.0968
255612,1.8301,2.0896
255613,1.8301,2.1017
255614,1.8366,2.1186
255615,1.8341,2.1412
255616,1.8309,2.1645
255617,1.8333,2.1686
255618,1.8398,2.1686
255619,1.8414,2.1790
255620,1.8430,2.1831
255621,1.8446,2.1895
255622,1.8438,2.1823
255623,1.8390,2.1718
255624,1.8414,2.1662
255625,1.8349,2.1484
255626,1.8341,2.1484
255627,1.8333,2.1275
255628,1.8325,2.1097
255629,1.8293,2.1146
255630,1.8317,2.1186
255631,1.8325,2.1315
255632,1.8366,2.1541
255633,1.8358,2.1710
255634,1.8366,2.1686
255635,1.8382,2.1653
255636,1.8406,2.1702
255637,1.8422,2.1871
255638,1.8422,2.1847
255639,1.8422,2.1807
255640,1.8382,2.1782
255641,1.8414,2.1605
255642,1.8366,2.1508
255643,1.8325,2.1396
255644,1.8325,2.1259
255645,1.8309,2.1315
255646,1.8293,2.1379
255647,1.8309,2.1525
255648,1.8366,2.1613
255649,1.8317,2.1790
255650,1.8358,2.1871
255651,1.8430,2.2048
255652,1.8414,2.2177
255653,1.8422,2.2298
255654,1.8438,2.2435
255655,1.8454,2.2564
255656,1.8462,2.2693
255657,1.8462,2.2822
255658,1.8511,2.2967
255659,1.8478,2.3088
255660,1.8551,2.3193
255661,1.8527,2.3217
255662,1.8511,2.3346
255663,1.8567,2.3459
255664,1.8567,2.3523
255665,1.8623,2.3588
255666,1.8607,2.3620
255667,1.8567,2.3733
255668,1.8615,2.3813
255669,1.8672,2.3853
255670,1.8696,2.3853
255671,1.8696,2.3878
255672,1.8688,2.3982
255673,1.8704,2.4039
255674,1.8744,2.4095
255675,1.8720,2.4111
255676,1.8777,2.4184
255677,1.8712,2.4232
255678,1.8736,2.4256
255679,1.8825,2.4353
255680,1.8785,2.4353
255681,1.8817,2.4377
255682,1.8841,2.4442
255683,1.8785,2.4466
255684,1.8825,2.4506
255685,1.8809,2.4579
255686,1.8817,2.4619
255687,1.8865,2.4651
255688,1.8833,2.4643
255689,1.8897,2.4708
255690,1.8954,2.4748
255691,1.8946,2.4748
255692,1.8914,2.4845
255693,1.8954,2.4877
255694,1.8962,2.4925
255695,1.8954,2.4958
255696,1.8946,2.4966
255697,1.8954,2.4998
255698,1.8970,2.5054
255699,1.8970,2.5054
255700,1.8954,2.5143
255701,1.8954,2.5095
255702,1.8970,2.5143
255703,1.9002,2.5167
255704,1.8994,2.5167
255705,1.8994,2.5175
255706,1.9018,2.5199
255707,1.9010,2.5248
255708,1.9042,2.5232
255709,1.8978,2.5272
255710,1.8986,2.5280
255711,1.9067,2.5312
255712,1.9083,2.5360
255713,1.9075,2.5344
255714,1.9075,2.5368
255715,1.9034,2.5377
255716,1.9075,2.5393
255717,1.9083,2.5401
255718,1.9091,2.5385
255719,1.9091,2.5449
255720,1.9091,2.5457
255721,1.9083,2.5505
255722,1.9083,2.5505
255723,1.9059,2.5522
255724,1.9083,2.5538
255725,1.9067,2.5522
255726,1.9083,2.5554
255727,1.9083,2.5562
255728,1.9083,2.5618
255729,1.9123,2.5578
255730,1.9099,2.5634
255731,1.9107,2.5642
255732,1.9147,2.5659
255733,1.9107,2.5659
255734,1.9163,2.5675
255735,1.9188,2.5659
255736,1.9139,2.5707
255737,1.9163,2.5771
255738,1.9365,2.5699
255739,1.9188,2.5707
255740,1.9051,2.5739
255741,1.9341,2.5747
255742,1.9091,2.5771
255743,1.9196,2.5771
255744,1.9220,2.5828
255745,1.9284,2.5796
255746,1.9171,2.5868
255747,1.9212,2.5836
255748,1.9212,2.5933
255749,1.9204,2.5884
255750,1.9171,2.5892
255751,1.9212,2.6005
255752,1.9123,2.5933
255753,1.9212,2.5941
255754,1.9220,2.5933
255755,1.9212,2.5933
255756,1.9212,2.5916
255757,1.9212,2.5989
255758,1.9260,2.5973
255759,1.9260,2.5973
255760,1.9389,2.6053
255761,1.9212,2.6005
255762,1.9107,2.6053
255763,1.9236,2.6045
255764,1.9212,2.6102
255765,1.9292,2.6102
255766,1.9284,2.6158
255767,1.9373,2.6174
255768,1.9268,2.6102
255769,1.9284,2.6174
255770,1.9228,2.6166
255771,1.9236,2.6174
255772,1.9413,2.6174
255773,1.9316,2.6199
255774,1.9228,2.6174
255775,1.9300,2.6223
255776,1.9316,2.6223
255777,1.9300,2.6215
255778,1.9316,2.6279
255779,1.9316,2.6231
255780,1.9316,2.6223
255781,1.9260,2.6303
255782,1.9300,2.6344
255783,1.9316,2.6327
255784,1.9333,2.6327
255785,1.9397,2.6376
255786,1.9325,2.6376
255787,1.9445,2.6384
255788,1.9316,2.6424
255789,1.9300,2.6432
255790,1.9325,2.6432
255791,1.9357,2.6440
255792,1.9139,2.6473
255793,1.9316,2.6513
255794,1.9413,2.6489
255795,1.9381,2.6513
255796,1.9325,2.6473
255797,1.9381,2.6553
255798,1.9325,2.6569
255799,1.9470,2.6577
255800,1.9357,2.6658
255801,1.9421,2.6601
255802,1.9478,2.6666
255803,1.9357,2.6682
255804,1.9196,2.6674
255805,1.9357,2.6690
255806,1.9357,2.6698
255807,1.9316,2.6706
255808,1.9429,2.6706
255809,1.9131,2.6763
255810,1.9389,2.6779
255811,1.9397,2.6811
255812,1.9357,2.6811
255813,1.9381,2.6795
255814,1.9413,2.6803
255815,1.9397,2.6843
255816,1.9437,2.6843
255817,1.9357,2.6892
255818,1.9365,2.6916
255819,1.9397,2.6924
255820,1.9397,2.6932
255821,1.9308,2.6924
255822,1.9333,2.6948
255823,1.9526,2.6948
255824,1.9397,2.6988
255825,1.9437,2.7004
255826,1.9421,2.6996
255827,1.9365,2.7004
255828,1.9421,2.7004
255829,1.9494,2.7045
255830,1.9590,2.7085
255831,1.9381,2.7069
255832,1.9397,2.7085
255833,1.9437,2.7101
255834,1.9478,2.7141
255835,1.9445,2.7133
255836,1.9462,2.7158
255837,1.9445,2.7190
255838,1.9453,2.7166
255839,1.9429,2.7206
255840,1.9397,2.7206
255841,1.9445,2.7230
255842,1.9413,2.7327
255843,1.9429,2.7286
255844,1.9462,2.7335
255845,1.9453,2.7383
255846,1.9470,2.7399
255847,1.9413,2.7464
255848,1.9405,2.7488
255849,1.9445,2.7520
255850,1.9470,2.7552
255851,1.9470,2.7577
255852,1.9478,2.7641
255853,1.9462,2.7649
255854,1.9462,2.7705
255855,1.9470,2.7681
255856,1.9470,2.7722
255857,1.9470,2.7488
255858,1.9470,2.7722
255859,1.9470,2.7722
255860,1.9445,2.7754
255861,1.9325,2.7754
255862,1.9542,2.7730
255863,1.9470,2.7738
255864,1.9470,2.7722
255865,1.9470,2.7722
255866,1.9478,2.7730
255867,1.9510,2.7714
255868,1.9494,2.7714
255869,1.9478,2.7464
255870,1.9478,2.7722
255871,1.9470,2.7697
255872,1.9494,2.7689
255873,1.9470,2.7681
255874,1.9478,2.7722
255875,1.9510,2.7673
255876,1.9486,2.7697
255877,1.9478,2.7714
255878,1.9518,2.7697
255879,1.9470,2.7649
255880,1.9486,2.7673
255881,1.9526,2.7649
255882,1.9494,2.7665
255883,1.9526,2.7641
255884,1.9526,2.7649
255885,1.9470,2.7899
255886,1.9470,2.7633
255887,1.9550,2.7560
255888,1.9542,2.7617
255889,1.9518,2.7585
255890,1.9542,2.7560
255891,1.9526,2.7568
255892,1.9510,2.7568
255893,1.9542,2.7568
255894,1.9599,2.7568
255895,1.9494,2.7577
255896,1.9542,2.7512
255897,1.9574,2.7544
255898,1.9550,2.7488
255899,1.9486,2.7488
255900,1.9494,2.7496
255901,1.9574,2.7625
255902,1.9526,2.7456
255903,1.9510,2.7641
255904,1.9558,2.7423
255905,1.9494,2.7440
255906,1.9526,2.7262
255907,1.9550,2.7351
255908,1.9574,2.7278
255909,1.9518,2.7278
255910,1.9510,2.7230
255911,1.9542,2.7206
255912,1.9542,2.7077
255913,1.9558,2.7190
255914,1.9526,2.6972
255915,1.9590,2.7125
255916,1.9494,2.6988
255917,1.9518,2.6811
255918,1.9582,2.6972
255919,1.9550,2.6875
255920,1.9526,2.7198
255921,1.9494,2.6795
255922,1.9542,2.6714
255923,1.9574,2.6634
255924,1.9615,2.6561
255925,1.9542,2.6489
255926,1.9470,2.6424
255927,1.9590,2.6392
255928,1.9558,2.5973
255929,1.9510,2.6489
255930,1.9494,2.6279
255931,1.9550,2.6070
255932,1.9518,2.6303
255933,1.9510,2.6303
255934,1.9550,2.6271
255935,1.9558,2.6287
255936,1.9470,2.6295
255937,1.9502,2.6287
255938,1.9526,2.6327
255939,1.9470,2.6327
255940,1.9566,2.6336
255941,1.9494,2.6352
255942,1.9550,2.6392
255943,1.9510,2.6360
255944,1.9582,2.6408
255945,1.9518,2.6400
255946,1.9574,2.6424
255947,1.9558,2.6255
255948,1.9655,2.6448
255949,1.9510,2.6319
255950,1.9502,2.6505
255951,1.9558,2.6513
                      257185,1.8301,2.1903
257186,1.8261,2.1895
257187,1.8293,2.2008
257188,1.8325,2.2056
257189,1.8446,2.2056
257190,1.8333,2.1992
257191,1.8382,2.1839
257192,1.8293,2.1678
257193,1.8269,2.1557
257194,1.8229,2.1347
257195,1.8261,2.1355
257196,1.8180,2.1428
257197,1.8398,2.1533
257198,1.8293,2.1742
257199,1.8261,2.1919
257200,1.8293,2.2153
257201,1.8180,2.2193
257202,1.8301,2.2169
257203,1.8180,2.2201
257204,1.8229,2.2314
257205,1.8333,2.2403
257206,1.8422,2.2395
257207,1.8358,2.2274
257208,1.8527,2.2185
257209,1.8277,2.2000
257210,1.8301,2.1839
257211,1.8301,2.1782
257212,1.8301,2.1766
257213,1.8325,2.1831
257214,1.8309,2.2008
257215,1.8462,2.2234
257216,1.8180,2.2419
257217,1.8317,2.2564
257218,1.8366,2.2564
257219,1.8301,2.2524
257220,1.8478,2.2572
257221,1.8341,2.2717
257222,1.8366,2.2701
257223,1.8366,2.2661
257224,1.8382,2.2556
257225,1.8358,2.2459
257226,1.8309,2.2395
257227,1.8406,2.2403
257228,1.8317,2.2484
257229,1.8317,2.2435
257230,1.8390,2.2596
257231,1.8349,2.2677
257232,1.8438,2.2733
257233,1.8390,2.2798
257234,1.8430,2.2943
257235,1.8406,2.3064
257236,1.8422,2.3023
257237,1.8438,2.3080
257238,1.8462,2.3185
257239,1.8438,2.3217
257240,1.8462,2.3249
257241,1.8503,2.3338
257242,1.8486,2.3418
257243,1.8438,2.3410
257244,1.8486,2.3483
257245,1.8551,2.3571
257246,1.8519,2.3596
257247,1.8478,2.3620
257248,1.8519,2.3700
257249,1.8535,2.3716
257250,1.8575,2.3773
257251,1.8551,2.3805
257252,1.8535,2.3862
257253,1.8575,2.3894
257254,1.8720,2.3958
257255,1.8640,2.3999
257256,1.8607,2.4039
257257,1.8575,2.4095
257258,1.8623,2.4103
257259,1.8656,2.4111
257260,1.8680,2.4160
257261,1.8607,2.4184
257262,1.8656,2.4216
257263,1.8688,2.4248
257264,1.8688,2.4289
257265,1.8648,2.4345
257266,1.8656,2.4353
257267,1.8720,2.4369
257268,1.8817,2.4369
257269,1.8656,2.4385
257270,1.8712,2.4434
257271,1.8656,2.4474
257272,1.8559,2.4498
257273,1.8696,2.4538
257274,1.8607,2.4514
257275,1.8897,2.4538
257276,1.8736,2.4555
257277,1.8591,2.4579
257278,1.8680,2.4619
257279,1.8720,2.4619
257280,1.8712,2.4643
257281,1.8688,2.4667
257282,1.8712,2.4708
257283,1.8736,2.4684
257284,1.8801,2.4748
257285,1.8704,2.4732
257286,1.8930,2.4748
257287,1.8752,2.4748
257288,1.8744,2.4845
257289,1.8696,2.4861
257290,1.8696,2.4877
257291,1.8785,2.4861
257292,1.8809,2.4909
257293,1.8897,2.4933
257294,1.8817,2.4909
257295,1.8801,2.4941
257296,1.8736,2.4982
257297,1.8881,2.4974
257298,1.8768,2.5014
257299,1.8881,2.5086
257300,1.8865,2.5086
257301,1.8777,2.5054
257302,1.8801,2.5103
257303,1.8914,2.5119
257304,1.8841,2.5143
257305,1.8817,2.5143
257306,1.8785,2.5151
257307,1.8849,2.5167
257308,1.8841,2.5215
257309,1.8809,2.5215
257310,1.8938,2.5264
257311,1.8825,2.5272
257312,1.8817,2.5304
257313,1.8825,2.5296
257314,1.8865,2.5360
257315,1.8841,2.5360
257316,1.8978,2.5401
257317,1.8817,2.5441
257318,1.8817,2.5497
257319,1.8809,2.5514
257320,1.8833,2.5554
257321,1.8849,2.5578
257322,1.8865,2.5642
257323,1.8833,2.5699
257324,1.8873,2.5747
257325,1.8841,2.5788
257326,1.8833,2.5828
257327,1.8857,2.5916
257328,1.8849,2.5989
257329,1.8849,2.6094
257330,1.8881,2.6158
257331,1.8889,2.6279
257332,1.8865,2.6384
257333,1.8938,2.6473
257334,1.8841,2.6593
257335,1.8865,2.6811
257336,1.8873,2.6827
257337,1.8889,2.6956
257338,1.8954,2.7101
257339,1.8922,2.7246
257340,1.8914,2.7423
257341,1.8954,2.7520
257342,1.8938,2.7722
257343,1.8954,2.7834
257344,1.8922,2.7979
257345,1.8978,2.8245
257346,1.8938,2.8262
257347,1.8970,2.8390
257348,1.8970,2.9011
257349,1.8970,2.8681
257350,1.9034,2.8842
257351,1.9010,2.9011
257352,1.9026,2.9100
257353,1.9051,2.9277
257354,1.8962,2.9390
257355,1.8978,2.9486
257356,1.9010,2.9640
257357,1.9107,2.9752
257358,1.9002,2.9825
257359,1.9034,2.9881
257360,1.9010,3.0042
257361,1.9107,3.0188
257362,1.9034,3.0276
257363,1.9163,3.0341
257364,1.9171,3.0437
257365,1.9034,3.0333
257366,1.9034,3.0607
257367,1.9067,3.0703
257368,1.9059,3.0816
257369,1.9115,3.0824
257370,1.9107,3.0945
257371,1.9083,3.1050
257372,1.9131,3.1082
257373,1.9083,3.1461
257374,1.9123,3.1219
257375,1.9163,3.1340
257376,1.9163,3.1388
257377,1.9171,3.1437
257378,1.9212,3.1549
257379,1.9212,3.1509
257380,1.9107,3.1590
257381,1.9099,3.1582
257382,1.9188,3.1469
257383,1.9139,3.1711
257384,1.9155,3.1582
257385,1.9204,3.1727
257386,1.9204,3.2114
257387,1.9091,3.1783
257388,1.9204,3.1848
257389,1.9196,3.1775
257390,1.9212,3.1864
257391,1.9204,3.1848
257392,1.9204,3.1799
257393,1.9196,3.1896
257394,1.9171,3.1928
257395,1.9171,3.1856
257396,1.9171,3.1936
257397,1.9171,3.1952
257398,1.9115,3.1936
257399,1.9212,3.1993
257400,1.9139,3.1960
257401,1.9099,3.1977
257402,1.9212,3.2541
257403,1.9171,3.1848
257404,1.9163,3.1977
257405,1.9204,3.1977
257406,1.9188,3.2621
257407,1.9204,3.1968
257408,1.9155,3.1952
257409,1.9188,3.1968
257410,1.9131,3.1960
257411,1.9147,3.1952
257412,1.9155,3.1944
257413,1.9212,3.1960
257414,1.9196,3.1993
257415,1.9155,3.1936
257416,1.9139,3.1968
257417,1.9204,3.1944
257418,1.9171,3.1936
257419,1.9163,3.1928
257420,1.9163,3.1904
257421,1.9212,3.1952
257422,1.9139,3.1960
257423,1.9212,3.1960
257424,1.9107,3.1944
257425,1.9212,3.1928
257426,1.9123,3.1993
257427,1.9083,3.1848
257428,1.9131,3.1936
257429,1.9123,3.1968
257430,1.9188,3.1952
257431,1.9188,3.1823
257432,1.9196,3.1985
257433,1.9212,3.1936
257434,1.9212,3.1993
257435,1.9179,3.2001
257436,1.9139,3.2017
257437,1.9131,3.2049
257438,1.9042,3.2017
257439,1.9220,3.2363
257440,1.9107,3.2073
257441,1.9204,3.2097
257442,1.9163,3.2057
257443,1.9188,3.2097
257444,1.9179,3.1968
257445,1.9171,3.2105
257446,1.9155,3.2089
257447,1.9171,3.2017
257448,1.9212,3.2001
257449,1.9099,3.1888
257450,1.9107,3.1977
257451,1.9212,3.1960
257452,1.9123,3.2001
257453,1.9212,3.1840
257454,1.9131,3.1840
257455,1.9091,3.1840
257456,1.9163,3.1711
257457,1.9139,3.1840
257458,1.9139,3.1767
257459,1.9131,3.1848
257460,1.9123,3.1670
257461,1.9212,3.2073
257462,1.9171,3.1388
257463,1.9075,3.1711
257464,1.9131,3.1590
257465,1.9171,3.1421
257466,1.9139,3.1437
257467,1.9123,3.1324
257468,1.9188,3.1243
257469,1.9099,3.1203
257470,1.9115,3.1074
257471,1.9163,3.1066
257472,1.9083,3.1090
257473,1.9115,3.0840
257474,1.9204,3.0961
257475,1.9107,3.0703
257476,1.9091,3.0453
257477,1.9139,3.0389
257478,1.9139,3.0300
257479,1.9123,3.0284
257480,1.9099,3.0155
257481,1.9115,3.0034
257482,1.9155,2.9881
257483,1.9131,2.9785
257484,1.9123,2.9527
257485,1.9083,2.9245
257486,1.9075,2.9075
257487,1.9083,2.8713
257488,1.9067,2.8342
257489,1.9034,2.7979
257490,1.9026,2.7931
257491,1.8994,2.7464
257492,1.9107,2.7391
257493,1.8994,2.7351
257494,1.9091,2.7343
257495,1.9010,2.7343
257496,1.8897,2.7359
257497,1.8970,2.7464
257498,1.9075,2.7520
257499,1.9026,2.7593
257500,1.8954,2.7681
257501,1.9002,2.7730
257502,1.9075,2.7746
257503,1.9010,2.7859
257504,1.9034,2.7931
257505,1.9034,2.7996
257506,1.9051,2.8076
257507,1.9010,2.8149
257508,1.9002,2.8205
257509,1.9067,2.8286
257510,1.9034,2.8342
257511,1.8962,2.8366
257512,1.9026,2.8423
257513,1.9083,2.8608
257514,1.9131,2.8592
257515,1.9002,2.8616
257516,1.9107,2.8640
257517,1.9067,2.8681
257518,1.9042,2.8826
257519,1.9059,2.8632
257520,1.9075,2.8834
257521,1.9099,2.8874
257522,1.9083,2.8971
257523,1.9115,2.9035
257524,1.9131,2.9051
257525,1.9115,2.9124
257526,1.9091,2.9164
257527,1.9107,2.9188
257528,1.9083,2.9269
257529,1.9188,2.9269
257530,1.9091,2.9309
257531,1.9099,2.9422
257532,1.9204,2.9454
257533,1.9083,2.9414
257534,1.9091,2.9535
257535,1.9115,2.9607
257536,1.9099,2.9599
257537,1.9107,2.9672
257538,1.9131,2.9712
257539,1.9155,2.9704
257540,1.9212,2.9793
257541,1.9212,2.9768
257542,1.9188,2.9873
257543,1.9139,2.9922
257544,1.9131,3.0018
257545,1.9220,2.9994
257546,1.9212,2.9922
257547,1.9196,3.0131
257548,1.9212,3.0067
257549,1.9260,3.0091
257550,1.9204,3.0163
257551,1.9212,3.0147
257552,1.9244,3.0179
257553,1.9228,3.0300
257554,1.9333,3.0325
257555,1.9268,3.0300
257556,1.9212,3.0333
257557,1.9236,3.0429
257558,1.9316,3.0421
257559,1.9268,3.0389
257560,1.9212,3.0437
257561,1.9171,3.0615
257562,1.9204,3.0558
257563,1.9333,3.0558
257564,1.9220,3.0607
257565,1.9228,3.0615
257566,1.9228,3.0631
257567,1.9316,3.0655
257568,1.9244,3.0719
257569,1.9268,3.0744
257570,1.9300,3.0776
257571,1.9316,3.0744
257572,1.9244,3.0864
257573,1.9316,3.0840
257574,1.9316,3.0856
257575,1.9268,3.0824
257576,1.9308,3.0921
257577,1.9260,3.0824
257578,1.9292,3.0784
257579,1.9268,3.0558
257580,1.9316,3.0566
257581,1.9292,3.0453
257582,1.9252,3.0389
257583,1.9292,3.0188
257584,1.9292,3.0163
257585,1.9308,3.0042
257586,1.9252,2.9962
257587,1.9284,2.9865
257588,1.9300,2.9785
257589,1.9244,2.9712
257590,1.9284,2.9583
257591,1.9292,2.9527
257592,1.9260,2.9430
257593,1.9284,2.9349
257594,1.9260,2.9293
257595,1.9260,2.9164
257596,1.9220,2.9100
257597,1.9252,2.9059
257598,1.9228,2.8874
257599,1.9212,2.8753
257600,1.9212,2.8713
257601,1.9212,2.8753
257602,1.9212,2.8568
257603,1.9220,2.8536
257604,1.9220,2.8495
257605,1.9204,2.8423
257606,1.9204,2.8374
257607,1.9171,2.8390
257608,1.9163,2.8197
257609,1.9212,2.8221
257610,1.9212,2.8229
257611,1.9139,2.8133
257612,1.9139,2.8060
257613,1.9196,2.7979
257614,1.9131,2.7979
257615,1.9179,2.7955
257616,1.9139,2.7899
257617,1.9139,2.7883
257618,1.9179,2.7883
257619,1.9123,2.7810
257620,1.9139,2.7810
257621,1.9155,2.7730
257622,1.9131,2.7722
257623,1.9099,2.7722
257624,1.9139,2.7681
257625,1.9091,2.7681
257626,1.9115,2.7617
257627,1.9107,2.7601
257628,1.9091,2.7512
257629,1.9131,2.7536
257630,1.9131,2.7544
257631,1.9091,2.7512
257632,1.9075,2.7488
257633,1.9115,2.7472
257634,1.9099,2.7456
257635,1.9083,2.7456
257636,1.9075,2.7448
257637,1.9026,2.7391
257638,1.9067,2.7391
257639,1.9034,2.7351
257640,1.9083,2.7359
257641,1.9010,2.7343
257642,1.9051,2.7327
257643,1.9042,2.7311
257644,1.9059,2.7246
257645,1.9059,2.7319
257646,1.9018,2.7311
257647,1.9026,2.7319
257648,1.9075,2.7286
257649,1.9042,2.7286
257650,1.9002,2.7286
257651,1.9051,2.7254
257652,1.9059,2.7230
257653,1.9059,2.7262
257654,1.9002,2.7246
257655,1.9042,2.7286
257656,1.9010,2.7222
257657,1.9034,2.7214
257658,1.8962,2.7278
257659,1.9010,2.7286
257660,1.9010,2.7254
257661,1.8994,2.7319
257662,1.9026,2.7295
257663,1.9018,2.7351
257664,1.8994,2.7367
257665,1.9034,2.7488
257666,1.9010,2.7456
257667,1.9042,2.7472
257668,1.9002,2.7520
257669,1.8970,2.7560
257670,1.9059,2.7617
257671,1.9002,2.7714
257672,1.9059,2.7762
257673,1.8986,2.7810
257674,1.9010,2.7883
257675,1.9026,2.7979
257676,1.9083,2.8028
257677,1.9083,2.8149
257678,1.8994,2.8197
257679,1.9002,2.8318
257680,1.9083,2.8423
257681,1.9010,2.8479
257682,1.9059,2.8600
257683,1.9325,2.8681
257684,1.9163,2.8850
257685,1.8954,2.8874
257686,1.9042,2.9092
257687,1.9083,2.9180
257688,1.9002,2.9317
257689,1.9042,2.9349
257690,1.9010,2.9575
257691,1.9026,2.9736
257692,1.8946,2.9809
257693,1.8954,2.9994
257694,1.9115,3.0051
257695,1.9059,3.0212
257696,1.9010,3.0341
257697,1.9010,3.0437
257698,1.9059,3.0558
257699,1.9131,3.0832
257700,1.9051,3.0808
257701,1.9067,3.0897
257702,1.9059,3.0993
257703,1.9107,3.1074
257704,1.9067,3.1195
257705,1.9059,3.1130
257706,1.9067,3.1372
257707,1.9107,3.1453
257708,1.9075,3.1582
257709,1.9059,3.1630
257710,1.9171,3.1646
257711,1.9139,3.1880
257712,1.9099,3.1864
257713,1.9131,3.1960
257714,1.9268,3.2025
257715,1.9123,3.2105
257716,1.9316,3.2114
257717,1.9091,3.2218
257718,1.9139,3.2331
257719,1.9083,3.2355
257720,1.9099,3.2283
257721,1.9091,3.2484
257722,1.9099,3.2500
257723,1.9091,3.2621
257724,1.9179,3.2605
257725,1.9075,3.2653
257726,1.9163,3.2678
257727,1.8962,3.2799
257728,1.9123,3.2879
257729,1.9067,3.2879
257730,1.9107,3.2903
257731,1.9042,3.3000
257732,1.9067,3.2976
257733,1.8970,3.3000
257734,1.9147,3.2960
257735,1.9083,3.3000
257736,1.9075,3.3000
257737,1.9252,3.3000
257738,1.9083,3.3000
257739,1.9163,3.3000
257740,1.9051,3.3000
257741,1.9220,3.3000
257742,1.9123,3.3000
257743,1.9236,3.3000
257744,1.9099,3.3000
257745,1.9123,3.3000
257746,1.9059,3.3000
257747,1.8946,3.3000
257748,1.9091,3.3000
257749,1.9083,3.3000
257750,1.9034,3.3000
257751,1.8817,3.3000
257752,1.9075,3.3000
257753,1.9034,3.3000
257754,1.8994,3.3000
257755,1.9042,3.3000
257756,1.9010,3.3000
257757,1.8978,3.3000
257758,1.8994,3.3000
257759,1.9034,3.3000
257760,1.9034,3.3000
257761,1.8970,3.3000
257762,1.8954,3.3000
257763,1.9059,3.3000
257764,1.9042,3.3000
257765,1.8970,3.3000
257766,1.9034,3.3000
257767,1.8954,3.3000
257768,1.8978,3.3000
257769,1.8954,3.3000
257770,1.8970,3.3000
257771,1.8946,3.3000
257772,1.9123,3.3000
257773,1.9171,3.3000
257774,1.8978,3.3000
257775,1.8970,3.3000
257776,1.8962,3.3000
257777,1.9026,3.3000
257778,1.8946,3.3000
257779,1.8978,3.3000
257780,1.8914,3.3000
257781,1.8881,3.3000
257782,1.8970,3.3000
257783,1.9099,3.3000
257784,1.8809,3.3000
257785,1.8930,3.3000
257786,1.8833,3.3000
257787,1.8978,3.3000
257788,1.8865,3.3000
257789,1.8881,3.3000
257790,1.8954,3.3000
257791,1.8930,3.3000
257792,1.8962,3.3000
257793,1.8825,3.3000
257794,1.9083,3.3000
257795,1.8938,3.3000
257796,1.8954,3.3000
257797,1.8954,3.3000
257798,1.8914,3.3000
257799,1.8930,3.3000
257800,1.8881,3.3000
257801,1.8704,3.3000
257802,1.8954,3.3000
257803,1.8930,3.3000
257804,1.8905,3.3000
257805,1.8914,3.3000
257806,1.8905,3.3000
257807,1.8905,3.3000
257808,1.8930,3.3000
257809,1.8954,3.3000
257810,1.8930,3.3000
257811,1.8873,3.3000
257812,1.8978,3.3000
257813,1.8954,3.3000
257814,1.8897,3.3000
257815,1.8865,3.3000
257816,1.8905,3.3000
257817,1.8938,3.3000
257818,1.8954,3.3000
257819,1.8865,3.3000
257820,1.8841,3.3000
257821,1.8922,3.3000
257822,1.8841,3.3000
257823,1.8785,3.3000
257824,1.8865,3.3000
257825,1.8873,3.3000
257826,1.8809,3.3000
257827,1.8938,3.3000
257828,1.8938,3.3000
257829,1.8849,3.3000
257830,1.8905,3.3000
257831,1.8905,3.3000
257832,1.8865,3.3000
257833,1.8833,3.3000
257834,1.8849,3.3000
257835,1.8801,3.3000
257836,1.8817,3.3000
257837,1.8922,3.3000
257838,1.8865,3.3000
257839,1.8865,3.3000
257840,1.8809,3.3000
257841,1.8833,3.3000
257842,1.8841,3.3000
257843,1.8825,3.3000
257844,1.8833,3.3000
257845,1.8817,3.3000
257846,1.8785,3.3000
257847,1.8849,3.3000
257848,1.8841,3.3000
257849,1.8768,3.3000
257850,1.8865,3.3000
257851,1.8752,3.3000
257852,1.8736,3.3000
257853,1.8785,3.3000
257854,1.8825,3.3000
257855,1.8785,3.3000
257856,1.8785,3.3000
257857,1.8801,3.3000
257858,1.8736,3.3000
257859,1.8777,3.3000
257860,1.8785,3.3000
257861,1.8712,3.3000
257862,1.8768,3.3000
257863,1.8752,3.3000
257864,1.8736,3.3000
257865,1.8696,3.3000
257866,1.8736,3.3000
257867,1.8777,3.3000
257868,1.8785,3.3000
257869,1.8785,3.3000
257870,1.8785,3.3000
257871,1.8712,3.3000
257872,1.8720,3.3000
257873,1.8736,3.3000
257874,1.8752,3.3000
257875,1.8680,3.3000
257876,1.8696,3.3000
257877,1.8704,3.3000
257878,1.8672,3.3000
257879,1.8696,3.3000
257880,1.8672,3.3000
257881,1.8696,3.3000
257882,1.8688,3.3000
257883,1.8696,3.3000
257884,1.8656,3.3000
257885,1.8688,3.3000
257886,1.8648,3.3000
257887,1.8696,3.3000
257888,1.8615,3.3000
257889,1.8672,3.3000
257890,1.8615,3.3000
257891,1.8648,3.3000
257892,1.8656,3.3000
257893,1.8623,3.3000
257894,1.8696,3.3000
257895,1.8688,3.3000
257896,1.8680,3.3000
257897,1.8688,3.3000
257898,1.8591,3.3000
257899,1.8575,3.3000
257900,1.8591,3.3000
257901,1.8607,3.3000
257902,1.8623,3.3000
257903,1.8575,3.3000
257904,1.8575,3.3000
257905,1.8575,3.3000
257906,1.8656,3.3000
257907,1.8607,3.3000
257908,1.8583,3.3000
257909,1.8656,3.3000
257910,1.8623,3.3000
257911,1.8607,3.3000
257912,1.8656,3.3000
257913,1.8615,3.3000
257914,1.8680,3.3000
257915,1.8656,3.3000
257916,1.8599,3.3000
257917,1.8607,3.3000
257918,1.8551,3.3000
257919,1.8583,3.3000
257920,1.8615,3.3000
257921,1.8704,3.3000
257922,1.8559,3.3000
257923,1.8591,3.3000
257924,1.8567,3.3000
257925,1.8559,3.3000
257926,1.8583,3.3000
257927,1.8583,3.3000
257928,1.8551,3.3000
257929,1.8527,3.3000
257930,1.8583,3.3000
257931,1.8559,3.3000
257932,1.8567,3.3000
257933,1.8583,3.3000
257934,1.8559,3.3000
257935,1.8527,3.3000
257936,1.8607,3.3000
257937,1.8575,3.3000
257938,1.8486,3.3000
257939,1.8535,3.3000
257940,1.8591,3.3000
257941,1.8551,3.3000
257942,1.8567,3.3000
257943,1.8535,3.3000
257944,1.8583,3.3000
257945,1.8575,3.3000
257946,1.8559,3.3000
257947,1.8615,3.3000
257948,1.8511,3.3000
257949,1.8527,3.3000
257950,1.8575,3.3000
257951,1.8551,3.3000
257952,1.8607,3.3000
257953,1.8527,3.3000
257954,1.8551,3.3000
257955,1.8454,3.3000
257956,1.8567,3.3000
257957,1.8543,3.3000
257958,1.8575,3.3000
257959,1.8543,3.3000
257960,1.8543,3.3000
257961,1.8527,3.3000
257962,1.8486,3.3000
257963,1.8559,3.3000
257964,1.8551,3.3000
257965,1.8511,3.3000
257966,1.8486,3.3000
257967,1.8486,3.3000
257968,1.8462,3.3000
257969,1.8543,3.3000
257970,1.8470,3.3000
257971,1.8478,3.3000
257972,1.8535,3.3000
257973,1.8478,3.3000
257974,1.8486,3.3000
257975,1.8543,3.3000
257976,1.8486,3.3000
257977,1.8446,3.3000
257978,1.8478,3.3000
257979,1.8495,3.3000
257980,1.8454,3.3000
257981,1.8454,3.3000
257982,1.8478,3.3000
257983,1.8495,3.3000
257984,1.8446,3.3000
257985,1.8478,3.3000
257986,1.8446,3.3000
257987,1.8495,3.3000
257988,1.8495,3.3000
257989,1.8454,3.3000
257990,1.8478,3.3000
257991,1.8438,3.3000
257992,1.8551,3.3000
257993,1.8470,3.3000
257994,1.8438,3.3000
257995,1.8446,3.3000
257996,1.8478,3.3000
257997,1.8495,3.3000
257998,1.8414,3.3000
257999,1.8438,3.3000
258000,1.8454,3.3000
258001,1.8478,3.3000
258002,1.8462,3.3000
258003,1.8414,3.3000
258004,1.8438,3.3000
258005,1.8430,3.3000
258006,1.8414,3.3000
258007,1.8430,3.3000
258008,1.8438,3.3000
258009,1.8454,3.2790
258010,1.8414,3.2968
258011,1.8438,3.2855
258012,1.8438,3.2887
258013,1.8438,3.2726
258014,1.8430,3.2839
258015,1.8438,3.2750
258016,1.8390,3.2734
258017,1.8438,3.2766
258018,1.8438,3.2629
258019,1.8390,3.2742
258020,1.8414,3.2541
258021,1.8390,3.2379
258022,1.8414,3.2097
258023,1.8349,3.1848
258024,1.8349,3.1590
258025,1.8398,3.1388
258026,1.8317,3.1050
258027,1.8301,3.0808
258028,1.8237,3.0558
258029,1.8301,3.0212
258030,1.8237,2.9914
258031,1.8309,2.9785
258032,1.8341,2.9511
258033,1.8237,2.9309
258034,1.8229,2.9100
258035,1.8229,2.8793
258036,1.8229,2.8673
258037,1.8237,2.8495
258038,1.8180,2.8310
258039,1.8253,2.8165
258040,1.8229,2.7979
258041,1.8188,2.7851
258042,1.8172,2.7722
258043,1.8124,2.7504
258044,1.8180,2.7464
258045,1.8140,2.7327
258046,1.8148,2.7238
258047,1.8140,2.7093
258048,1.8180,2.6964
258049,1.8100,2.6892
258050,1.8140,2.6795
258051,1.8075,2.6706
258052,1.8067,2.6618
258053,1.8084,2.6505
258054,1.8075,2.6464
258055,1.8092,2.6440
258056,1.8059,2.6295
258057,1.8059,2.6215
258058,1.8084,2.6158
258059,1.8067,2.6150
258060,1.8172,2.6029
258061,1.8092,2.5957
258062,1.8092,2.5957
258063,1.8035,2.5868
258064,1.8027,2.5804
258065,1.8035,2.5763
258066,1.8075,2.5699
258067,1.8043,2.5667
258068,1.8092,2.5642
258069,1.8051,2.5554
258070,1.8003,2.5522
258071,1.8043,2.5505
258072,1.8043,2.5441
258073,1.8011,2.5393
258074,1.8043,2.5377
258075,1.8043,2.5360
258076,1.8051,2.5312
258077,1.8075,2.5272
258078,1.8051,2.5264
258079,1.8051,2.5215
258080,1.8027,2.5143
258081,1.8059,2.5143
258082,1.8051,2.5135
258083,1.8067,2.5095
258084,1.8075,2.5143
258085,1.8059,2.5030
258086,1.8108,2.4990
258087,1.8075,2.4941
258088,1.8067,2.4901
258089,1.8051,2.4909
258090,1.8075,2.4933
258091,1.8035,2.4885
258092,1.8075,2.4990
258093,1.8092,2.4837
258094,1.8100,2.4853
258095,1.8043,2.4748
258096,1.8019,2.4748
258097,1.8108,2.4748
258098,1.8043,2.4869
258099,1.8075,2.4675
258100,1.8059,2.4716
258101,1.8059,2.4684
258102,1.8051,2.4684
258103,1.8059,2.4684
258104,1.8059,2.4635
258105,1.8043,2.4659
258106,1.8108,2.4635
258107,1.8092,2.4619
258108,1.8108,2.4514
258109,1.8124,2.4603
258110,1.8084,2.4732
258111,1.8051,2.4619
258112,1.8059,2.4627
258113,1.8092,2.4579
258114,1.8124,2.4587
258115,1.8084,2.4619
258116,1.8075,2.4603
258117,1.8092,2.4514
258118,1.8148,2.4579
258119,1.8164,2.4587
258120,1.8100,2.4579
258121,1.8156,2.4555
258122,1.8132,2.4538
258123,1.8075,2.4498
258124,1.8140,2.4579
258125,1.8140,2.4522
258126,1.8164,2.4506
258127,1.8156,2.4538
258128,1.8124,2.4490
258129,1.8172,2.4490
258130,1.8140,2.4450
258131,1.8180,2.4418
258132,1.8156,2.4490
258133,1.8180,2.4498
258134,1.8164,2.4482
258135,1.8180,2.4506
258136,1.8180,2.4474
258137,1.8180,2.4482
258138,1.8164,2.4393
258139,1.8140,2.4474
258140,1.8172,2.4482
258141,1.8156,2.4490
258142,1.8204,2.4498
258143,1.8204,2.4490
258144,1.8196,2.4490
258145,1.8180,2.4538
258146,1.8180,2.4474
258147,1.8204,2.4506
258148,1.8180,2.4498
258149,1.8180,2.4490
258150,1.8180,2.4482
258151,1.8221,2.4579
258152,1.8229,2.4514
258153,1.8180,2.4506
258154,1.8180,2.4482
258155,1.8196,2.4522
258156,1.8180,2.4474
258157,1.8196,2.4506
258158,1.8204,2.4514
258159,1.8172,2.4530
258160,1.8204,2.4506
258161,1.8180,2.4603
258162,1.8180,2.4498
258163,1.8382,2.4530
258164,1.8180,2.4514
258165,1.8221,2.4579
258166,1.8293,2.4627
258167,1.8188,2.4627
258168,1.8229,2.4587
258169,1.8180,2.4393
258170,1.8229,2.4393
258171,1.8237,2.4418
258172,1.8188,2.4426
258173,1.8253,2.4200
258174,1.8293,2.4071
258175,1.8229,2.3837
258176,1.8237,2.3684
258177,1.8164,2.3459
258178,1.8301,2.3241
258179,1.8180,2.3225
258180,1.8140,2.3289
258181,1.8180,2.3354
258182,1.8180,2.3555
258183,1.8164,2.3636
258184,1.8188,2.3684
258185,1.8172,2.3547
258186,1.8180,2.3491
258187,1.8164,2.3547
258188,1.8188,2.3588
258189,1.8180,2.3588
258190,1.8180,2.3410
258191,1.8180,2.3289
258192,1.8204,2.3080
258193,1.8140,2.2870
258194,1.8011,2.2709
258195,1.8180,2.2621
258196,1.8075,2.2612
258197,1.8100,2.2693
258198,1.8059,2.2846
258199,1.8108,2.3040
258200,1.8148,2.3096
258201,1.8164,2.3160
258202,1.7995,2.3072
258203,1.8180,2.2967
258204,1.8180,2.3096
258205,1.8108,2.3152
258206,1.8172,2.3104
258207,1.8043,2.2951
258208,1.8156,2.2806
258209,1.8172,2.2572
258210,1.8075,2.2524
258211,1.7979,2.2306
258212,1.8059,2.2266
258213,1.8108,2.2290
258214,1.8043,2.2540
258215,1.8124,2.2621
258216,1.8059,2.2774
258217,1.8132,2.2870
258218,1.8100,2.2862
258219,1.8124,2.2685
258220,1.8309,2.2822
258221,1.7979,2.2903
258222,1.7971,2.2870
258223,1.8035,2.2822
258224,1.8108,2.2685
258225,1.8100,2.2532
258226,1.8140,2.2379
258227,1.8075,2.2193
258228,1.8059,2.2081
258229,1.8132,2.2048
258230,1.8051,2.2048
258231,1.8051,2.2218
258232,1.8100,2.2435
258233,1.7979,2.2612
258234,1.8092,2.2637
258235,1.8172,2.2572
258236,1.8253,2.2556
258237,1.8108,2.2629
258238,1.8092,2.2709
258239,1.8108,2.2677
258240,1.8100,2.2604
258241,1.8059,2.2492
258242,1.8100,2.2306
258243,1.7842,2.2169
258244,1.8108,2.1992
258245,1.8092,2.1887
258246,1.8212,2.1871
258247,1.8043,2.1976
258248,1.8059,2.2137
258249,1.8051,2.2314
258250,1.8108,2.2508
258251,1.8140,2.2556
258252,1.8124,2.2451
258253,1.8140,2.2427
258254,1.8059,2.2508
258255,1.8100,2.2564
258256,1.8116,2.2540
258257,1.8180,2.2435
258258,1.8100,2.2274
258259,1.8132,2.2121
258260,1.8051,2.1944
258261,1.8067,2.1742
258262,1.8059,2.1653
258263,1.8180,2.1662
258264,1.8035,2.1799
258265,1.7979,2.1952
258266,1.8100,2.2185
258267,1.8132,2.2314
258268,1.8092,2.2314
258269,1.8164,2.2282
258270,1.8164,2.2306
258271,1.8140,2.2395
258272,1.8132,2.2411
258273,1.8132,2.2387
258274,1.8108,2.2234
258275,1.8180,2.2089
258276,1.8124,2.1919
258277,1.8092,2.1750
258278,1.8108,2.1573
258279,1.8051,2.1533
258280,1.8059,2.1565
258281,1.8035,2.1734
258282,1.8027,2.1944
258283,1.8092,2.2169
258284,1.8075,2.2218
258285,1.8132,2.2234
258286,1.8092,2.2161
258287,1.8156,2.2266
258288,1.8188,2.2363
258289,1.8108,2.2347
258290,1.8156,2.2306
258291,1.8180,2.2129
258292,1.8067,2.1992
258293,1.8108,2.1815
258294,1.8237,2.1662
258295,1.8067,2.1484
258296,1.8092,2.1525
258297,1.8043,2.1541
258298,1.8051,2.1774
258299,1.8075,2.1976
258300,1.8092,2.2201
258301,1.8100,2.2210
258302,1.8043,2.2169
258303,1.8059,2.2153
258304,1.8084,2.2258
258305,1.8140,2.2306
258306,1.8100,2.2330
258307,1.8124,2.2218
258308,1.8092,2.2089
258309,1.8124,2.1911
258310,1.8059,2.1766
258311,1.8059,2.1573
258312,1.8067,2.1460
258313,1.8059,2.1484
258314,1.8011,2.1565
258315,1.8124,2.1847
258316,1.8059,2.2032
258317,1.8067,2.2121
258318,1.8051,2.2177
258319,1.8027,2.2097
258320,1.8132,2.2177
258321,1.8116,2.2306
258322,1.8108,2.2314
258323,1.8100,2.2266
258324,1.8100,2.2129
258325,1.8124,2.2008
258326,1.8092,2.1807
258327,1.8051,2.1645
258328,1.8075,2.1508
258329,1.8043,2.1460
258330,1.7995,2.1549
258331,1.7963,2.1774
258332,1.8092,2.1790
258333,1.8124,2.2056
258334,1.8035,2.2153
258335,1.8108,2.2177
258336,1.8092,2.2564
258337,1.8140,2.1871
258338,1.8011,2.2274
258339,1.8059,2.2234
258340,1.8108,2.2153
258341,1.8067,2.2032
258342,1.8132,2.1831
258343,1.8067,2.1686
258344,1.8043,2.1525
258345,1.8059,2.1363
258346,1.8027,2.1331
258347,1.8059,2.1428
258348,1.8011,2.1621
258349,1.8027,2.1847
258350,1.8059,2.2032
258351,1.8092,2.2048
258352,1.8092,2.2105
258353,1.8092,2.2064
258354,1.8108,2.2314
258355,1.8092,2.2193
258356,1.8067,2.2201
258357,1.8108,2.2089
258358,1.8116,2.1944
258359,1.8059,2.1645
258360,1.8108,2.1613
258361,1.8075,2.1170
258362,1.8011,2.1484
258363,1.8003,2.1299
258364,1.8027,2.1508
258365,1.8075,2.1758
258366,1.8084,2.1895
258367,1.8092,2.2161
258368,1.8140,2.2129
258369,1.8164,2.2024
258370,1.8075,2.2073
258371,1.8092,2.2185
258372,1.8108,2.2306
258373,1.8148,2.2185
258374,1.8075,2.2105
258375,1.8092,2.1960
258376,1.8051,2.1831
258377,1.8075,2.1597
258378,1.8100,2.1484
258379,1.8108,2.1396
258380,1.8067,2.1436
258381,1.8035,2.1412
258382,1.8067,2.1525
258383,1.8075,2.2008
258384,1.8140,2.2097
258385,1.8100,2.2097
258386,1.8124,2.2089
258387,1.8132,2.2145
258388,1.8092,2.2258
258389,1.8108,2.2258
258390,1.8180,2.2105
258391,1.8108,2.2048
258392,1.8084,2.1936
258393,1.8124,2.1621
258394,1.8075,2.1573
258395,1.8051,2.1525
258396,1.8075,2.1371
258397,1.8084,2.1404
258398,1.8043,2.1613
258399,1.8092,2.1645
258400,1.8075,2.2024
258401,1.8084,2.2089
258402,1.8100,2.2073
258403,1.8092,2.2089
258404,1.8164,2.2048
258405,1.8221,2.2298
258406,1.8164,2.2266
258407,1.8164,2.2218
258408,1.8100,2.2048
258409,1.8075,2.1847
258410,1.8132,2.1621
258411,1.8043,2.1670
258412,1.8067,2.1452
258413,1.8051,2.1476
258414,1.8011,2.1694
258415,1.8075,2.1766
258416,1.8067,2.1903
258417,1.8067,2.2089
258418,1.8084,2.2169
258419,1.8140,2.2137
258420,1.8140,2.2193
258421,1.8059,2.2306
258422,1.8140,2.2347
258423,1.8132,2.2443
258424,1.8132,2.2210
258425,1.8172,2.2048
258426,1.8180,2.1968
258427,1.8075,2.1782
258428,1.8100,2.1492
258429,1.8043,2.1492
258430,1.8059,2.1573
258431,1.8043,2.1790
258432,1.8092,2.1871
258433,1.8067,2.2073
258434,1.8075,2.2193
258435,1.8140,2.2234
258436,1.8124,2.2234
258437,1.8132,2.2306
258438,1.8180,2.2419
258439,1.8148,2.2484
258440,1.8172,2.2532
258441,1.8180,2.2193
258442,1.8229,2.2201
258443,1.8196,2.2024
258444,1.8180,2.2008
258445,1.8140,2.1670
258446,1.8132,2.1621
258447,1.8140,2.1831
258448,1.8140,2.1831
258449,1.8124,2.1968
258450,1.8180,2.1976
258451,1.8204,2.2266
258452,1.8204,2.2419
258453,1.8204,2.2395
258454,1.8188,2.2540
258455,1.8237,2.2612
258456,1.8261,2.2677
258457,1.8261,2.2653
258458,1.8301,2.2564
258459,1.8261,2.2395
258460,1.8269,2.2226
258461,1.8204,2.2048
258462,1.8204,2.1944
258463,1.8188,2.1976
258464,1.8237,2.2040
258465,1.8188,2.2040
258466,1.8293,2.2330
258467,1.8221,2.2419
258468,1.8269,2.2564
258469,1.8317,2.2637
258470,1.8333,2.2822
258471,1.8293,2.2564
258472,1.8301,2.3056
258473,1.8366,2.2975
258474,1.8301,2.2862
258475,1.8366,2.2846
258476,1.8382,2.2621
258477,1.8382,2.2564
258478,1.8349,2.2395
258479,1.8358,2.2395
258480,1.8333,2.2435
258481,1.8358,2.2459
258482,1.8341,2.2556
258483,1.8406,2.2604
258484,1.8341,2.2862
258485,1.8430,2.2878
258486,1.8390,2.3032
258487,1.8430,2.3080
258488,1.8454,2.3193
258489,1.8486,2.3338
258490,1.8486,2.3362
258491,1.8527,2.3338
258492,1.8543,2.3281
258493,1.8543,2.3104
258494,1.8591,2.2975
258495,1.8495,2.2878
258496,1.8511,2.2862
258497,1.8559,2.2927
258498,1.8543,2.2967
258499,1.8567,2.3064
258500,1.8551,2.3064
258501,1.8559,2.3136
258502,1.8607,2.3297
258503,1.8559,2.3426
258504,1.8615,2.3579
258505,1.8607,2.3596
258506,1.8623,2.3725
258507,1.8696,2.3853
258508,1.8623,2.3853
258509,1.8640,2.3805
258510,1.8623,2.3620
258511,1.8656,2.3515
258512,1.8640,2.3483
258513,1.8623,2.3515
258514,1.8640,2.3475
258515,1.8607,2.3507
258516,1.8632,2.3571
258517,1.8656,2.3596
258518,1.8575,2.3644
258519,1.8623,2.3765
258520,1.8640,2.3878
258521,1.8688,2.3894
258522,1.8656,2.3966
258523,1.8688,2.4055
258524,1.8696,2.4152
258525,1.8688,2.4168
258526,1.8680,2.4095
258527,1.8640,2.3910
258528,1.8648,2.3853
258529,1.8696,2.3837
258530,1.8664,2.3797
258531,1.8656,2.3829
258532,1.8664,2.3894
258533,1.8672,2.3862
258534,1.8656,2.3894
258535,1.8656,2.3950
258536,1.8696,2.4031
258537,1.8688,2.4087
258538,1.8688,2.4136
258539,1.8696,2.4160
258540,1.8656,2.4248
258541,1.8680,2.4369
258542,1.8696,2.4264
258543,1.8680,2.4160
258544,1.8656,2.4039
258545,1.8680,2.3966
258546,1.8680,2.3974
258547,1.8656,2.3942
258548,1.8656,2.3958
258549,1.8664,2.3942
258550,1.8680,2.3990
258551,1.8672,2.4031
258552,1.8640,2.4055
258553,1.8672,2.4111
258554,1.8688,2.4152
258555,1.8664,2.4232
258556,1.8696,2.4256
258557,1.8656,2.4361
258558,1.8704,2.4410
258559,1.8664,2.4345
258560,1.8688,2.4200
258561,1.8680,2.4079
258562,1.8688,2.4031
258563,1.8696,2.4039
258564,1.8672,2.3990
258565,1.8640,2.4119
258566,1.8696,2.3982
258567,1.8656,2.4087
258568,1.8648,2.4111
258569,1.8648,2.4127
258570,1.8656,2.4136
258571,1.8696,2.4224
258572,1.8672,2.4281
258573,1.8672,2.4321
258574,1.8656,2.4377
258575,1.8696,2.4401
258576,1.8680,2.4297
258577,1.8672,2.4111
258578,1.8623,2.4031
258579,1.8640,2.4071
258580,1.8656,2.4079
258581,1.8640,2.3966
258582,1.8615,2.4031
258583,1.8648,2.4031
258584,1.8623,2.4023
258585,1.8656,2.4136
258586,1.8640,2.4103
258587,1.8688,2.4111
258588,1.8607,2.4119
258589,1.8640,2.4160
258590,1.8664,2.4232
258591,1.8640,2.4264
258592,1.8648,2.4264
258593,1.8615,2.4127
258594,1.8640,2.4063
258595,1.8615,2.3902
258596,1.8632,2.3982
258597,1.8575,2.3958
258598,1.8623,2.4023
258599,1.8591,2.3974
258600,1.8648,2.3990
258601,1.8623,2.3999
258602,1.8599,2.4103
258603,1.8623,2.4168
258604,1.8623,2.4200
258605,1.8648,2.4240
258606,1.8607,2.4313
258607,1.8615,2.4393
258608,1.8672,2.4401
258609,1.8648,2.4313
258610,1.8599,2.4192
258611,1.8615,2.4039
258612,1.8640,2.4039
258613,1.8615,2.3990
258614,1.8656,2.4007
258615,1.8656,2.3990
258616,1.8656,2.3999
258617,1.8591,2.4063
258618,1.8615,2.4103
258619,1.8615,2.4224
258620,1.8640,2.4256
258621,1.8648,2.4337
258622,1.8648,2.4353
258623,1.8623,2.4547
258624,1.8672,2.4587
258625,1.8696,2.4498
258626,1.8696,2.4377
258627,1.8672,2.4184
258628,1.8688,2.4087
258629,1.8648,2.4071
258630,1.8656,2.4039
258631,1.8680,2.4071
258632,1.8623,2.4071
258633,1.8648,2.4095
258634,1.8672,2.4152
258635,1.8688,2.4256
258636,1.8712,2.4345
258637,1.8720,2.4426
258638,1.8696,2.4482
258639,1.8712,2.4611
258640,1.8744,2.4627
258641,1.8785,2.4587
258642,1.8785,2.4401
258643,1.8777,2.4281
258644,1.8793,2.4087
258645,1.8801,2.3853
258646,1.8825,2.3974
258647,1.8801,2.3934
258648,1.8841,2.3974
258649,1.8817,2.4039
258650,1.8817,2.4111
258651,1.8833,2.4168
258652,1.8873,2.4240
258653,1.8825,2.4313
258654,1.8922,2.4353
258655,1.8914,2.4426
258656,1.8720,2.4458
258657,1.8954,2.4385
258658,1.8946,2.4264
258659,1.8905,2.4127
258660,1.8905,2.3950
258661,1.8873,2.3708
258662,1.8922,2.3628
258663,1.8905,2.3604
258664,1.8817,2.3725
258665,1.8849,2.3741
258666,1.8865,2.3853
258667,1.8914,2.3966
258668,1.8841,2.4023
258669,1.8897,2.4031
258670,1.8881,2.4055
258671,1.8623,2.4071
258672,1.8954,2.4192
258673,1.8914,2.4087
258674,1.8946,2.3990
258675,1.8922,2.3813
258676,1.8897,2.3676
258677,1.8905,2.3483
258678,1.8768,2.3289
258679,1.8849,2.3168
258680,1.8648,2.3209
258681,1.8817,2.3314
258682,1.8785,2.3491
258683,1.8817,2.3588
258684,1.8583,2.3716
258685,1.8768,2.3660
258686,1.8768,2.3571
258687,1.8760,2.3596
258688,1.8744,2.3684
258689,1.8768,2.3620
258690,1.8752,2.3588
258691,1.8736,2.3370
258692,1.8696,2.3225
258693,1.8720,2.3080
258694,1.8688,2.2895
258695,1.8656,2.2709
258696,1.8728,2.2669
258697,1.8688,2.2709
258698,1.8607,2.2838
258699,1.8599,2.2991
258700,1.8680,2.3160
258701,1.8664,2.3160
258702,1.8656,2.3064
258703,1.8591,2.3072
258704,1.8599,2.3120
258705,1.8615,2.3088
258706,1.8640,2.3040
258707,1.8648,2.2967
258708,1.8575,2.2822
258709,1.8591,2.2653
258710,1.8495,2.2419
258711,1.8511,2.2363
258712,1.8446,2.2121
258713,1.8454,2.2129
258714,1.8438,2.2226
258715,1.8462,2.2387
258716,1.8495,2.2532
258717,1.8438,2.2653
258718,1.8495,2.2677
258719,1.8390,2.2564
258720,1.8446,2.2564
258721,1.8462,2.2669
258722,1.8470,2.2645
258723,1.8640,2.2564
258724,1.8438,2.2475
258725,1.8438,2.2363
258726,1.8454,2.2177
258727,1.8414,2.2048
258728,1.8430,2.1839
258729,1.8414,2.1766
258730,1.8349,2.1790
258731,1.8366,2.1903
258732,1.8390,2.2073
258733,1.8309,2.2306
258734,1.8390,2.2314
258735,1.8366,2.2306
258736,1.8438,2.2290
258737,1.8422,2.2306
258738,1.8390,2.2387
258739,1.8438,2.2355
258740,1.8382,2.2290
258741,1.8349,2.2129
258742,1.8333,2.1968
258743,1.8430,2.1790
258744,1.8309,2.1621
258745,1.8301,2.1452
258746,1.8293,2.1379
258747,1.8277,2.1420
258748,1.8277,2.1581
258749,1.8333,2.1799
258750,1.8221,2.1992
258751,1.8366,2.2040
258752,1.8293,2.1960
258753,1.8317,2.1927
258754,1.8366,2.2048
258755,1.8180,2.2097
258756,1.8349,2.2048
258757,1.8398,2.2000
258758,1.8317,2.1839
258759,1.8237,2.1750
258760,1.8285,2.1516
258761,1.8237,2.1323
258762,1.8269,2.1275
258763,1.8285,2.1267
258764,1.8269,2.1363
258765,1.8333,2.1533
258766,1.7971,2.1750
258767,1.8454,2.1879
258768,1.8100,2.1936
258769,1.8180,2.1879
258770,1.8269,2.1936
258771,1.8293,2.2016
258772,1.8285,2.2064
258773,1.8358,2.1976
258774,1.8180,2.1871
258775,1.8325,2.1734
258776,1.8229,2.1557
258777,1.8261,2.1452
258778,1.8229,2.1283
258779,1.8140,2.1259
258780,1.8221,2.1226
258781,1.8124,2.1388
258782,1.8212,2.1605
258783,1.8156,2.1831
258784,1.8253,2.1895
258785,1.8261,2.1903
258786,1.8285,2.1839
258787,1.8229,2.1927
258788,1.8221,2.2000
258789,1.8301,2.2048
258790,1.8212,2.1960
258791,1.8237,2.1807
258792,1.8237,2.1686
258793,1.8293,2.1533
258794,1.8180,2.1379
258795,1.8188,2.1226
258796,1.8180,2.1226
258797,1.8164,2.1283
258798,1.8164,2.1460
258799,1.8196,2.1694
258800,1.8180,2.1879
258801,1.8188,2.1887
258802,1.8204,2.1879
258803,1.8229,2.1903
258804,1.8180,2.1992
258805,1.8293,2.2048
258806,1.8221,2.2032
258807,1.8293,2.1895
258808,1.8269,2.1790
258809,1.8180,2.1662
258810,1.8180,2.1508
258811,1.8156,2.1355
258812,1.8180,2.1307
258813,1.8140,2.1315
258814,1.8164,2.1428
258815,1.8156,2.1629
258816,1.8196,2.1879
258817,1.8204,2.1976
258818,1.8204,2.1976
258819,1.8221,2.1960
258820,1.8237,2.1976
258821,1.8188,2.1879
258822,1.8261,2.2153
258823,1.8237,2.2145
258824,1.8317,2.2040
258825,1.8253,2.1968
258826,1.8309,2.1790
258827,1.8221,2.1613
258828,1.8180,2.1533
258829,1.8180,2.1533
258830,1.8180,2.1581
258831,1.8180,2.1557
258832,1.8204,2.1879
258833,1.8180,2.2105
258834,1.8180,2.2089
258835,1.8285,2.2427
258836,1.8269,2.2161
258837,1.8301,2.2048
258838,1.8285,2.2435
258839,1.8253,2.2363
258840,1.8325,2.2387
258841,1.8261,2.2201
258842,1.8253,2.2032
258843,1.8293,2.1927
258844,1.8237,2.1790
258845,1.8269,2.1686
258846,1.8285,2.1718
258847,1.8204,2.1710
258848,1.8253,2.2185
258849,1.8293,2.2040
258850,1.8237,2.1919
258851,1.8309,2.2121
258852,1.8237,2.2234
258853,1.8309,2.2306
258854,1.8285,2.2363
258855,1.8358,2.2475
258856,1.8325,2.2564
258857,1.8349,2.2572
258858,1.8317,2.2701
258859,1.8349,2.2766
258860,1.8349,2.2822
258861,1.8349,2.2911
258862,1.8438,2.2927
258863,1.8390,2.2975
258864,1.8398,2.3072
258865,1.8414,2.3104
258866,1.8430,2.3160
258867,1.8430,2.3136
258868,1.8446,2.3136
258869,1.8462,2.3233
258870,1.8454,2.3265
258871,1.8454,2.3338
258872,1.8478,2.3338
258873,1.8438,2.3370
258874,1.8454,2.3394
258875,1.8462,2.3418
258876,1.8511,2.3588
258877,1.8543,2.3555
258878,1.8478,2.3555
258879,1.8535,2.3596
258880,1.8527,2.3878
258881,1.8559,2.3475
258882,1.8535,2.3644
258883,1.8511,2.3700
258884,1.8527,2.3741
258885,1.8551,2.3725
258886,1.8567,2.3741
258887,1.8599,2.3781
258888,1.8567,2.3805
258889,1.8583,2.3845
258890,1.8599,2.3845
258891,1.8599,2.3853
258892,1.8575,2.3853
258893,1.8551,2.3910
258894,1.8591,2.3910
258895,1.8615,2.3934
258896,1.8615,2.3966
258897,1.8696,2.3974
258898,1.8615,2.3999
258899,1.8591,2.4007
258900,1.8623,2.4039
258901,1.8615,2.4087
258902,1.8591,2.4055
258903,1.8623,2.4111
258904,1.8680,2.4095
258905,1.8680,2.4111
258906,1.8664,2.4127
258907,1.8688,2.4119
258908,1.8704,2.4321
258909,1.8688,2.4160
258910,1.8696,2.4039
258911,1.8672,2.4216
258912,1.8656,2.4119
258913,1.8696,2.4200
258914,1.8696,2.4273
258915,1.8696,2.4184
258916,1.8640,2.4281
258917,1.8640,2.4200
258918,1.8696,2.4337
258919,1.8680,2.4200
258920,1.8696,2.4369
258921,1.8664,2.4474
258922,1.8744,2.4369
258923,1.8720,2.4393
258924,1.8664,2.4410
258925,1.8704,2.4256
258926,1.8704,2.4418
258927,1.8704,2.4458
258928,1.8736,2.4474
258929,1.8712,2.4482
258930,1.8696,2.4522
258931,1.8664,2.4192
258932,1.8704,2.4490
258933,1.8704,2.4845
258934,1.8704,2.4498
258935,1.8696,2.4377
258936,1.8744,2.4579
258937,1.8704,2.4571
258938,1.8704,2.4627
258939,1.8696,2.4651
258940,1.8744,2.4885
258941,1.8720,2.4627
258942,1.8696,2.4708
258943,1.8680,2.4732
258944,1.8752,2.4877
258945,1.8736,2.5086
258946,1.8704,2.4748
258947,1.8696,2.5086
258948,1.8736,2.4958
258949,1.8712,2.4958
258950,1.8736,2.4966
258951,1.8752,2.5030
258952,1.8720,2.5070
258953,1.8688,2.5103
258954,1.8696,2.5127
258955,1.8696,2.5223
258956,1.8704,2.5586
258957,1.8801,2.5393
258958,1.8744,2.5425
258959,1.8736,2.5522
258960,1.8777,2.5634
258961,1.8712,2.5908
258962,1.8785,2.5860
258963,1.8825,2.5989
258964,1.8809,2.6094
258965,1.8809,2.6231
258966,1.8736,2.6384
258967,1.8809,2.6529
258968,1.8825,2.6545
258969,1.8865,2.6763
258970,1.8873,2.7133
258971,1.8849,2.7141
258972,1.8849,2.7262
258973,1.8881,2.7456
258974,1.8809,2.7577
258975,1.8817,2.7722
258976,1.8873,2.8060
258977,1.8849,2.7979
258978,1.8849,2.8181
258979,1.8954,2.8294
258980,1.8897,2.8390
258981,1.8970,2.8584
258982,1.8905,2.8681
258983,1.8914,2.8777
258984,1.8978,2.8874
258985,1.8938,2.9164
258986,1.8946,2.9253
258987,1.8978,2.9358
258988,1.8954,2.9422
258989,1.8962,2.9551
258990,1.8954,2.9688
258991,1.9042,2.9785
258992,1.9034,2.9865
258993,1.8970,2.9954
258994,1.9083,3.0042
258995,1.9010,3.0139
258996,1.9010,3.0268
258997,1.9075,3.0325
258998,1.8970,3.0405
258999,1.9051,3.0445
259000,1.9034,3.0590
259001,1.9083,3.0599
259002,1.9115,3.0711
259003,1.9099,3.0784
259004,1.9091,3.0873
259005,1.9123,3.0905
259006,1.9075,3.0969
259007,1.9083,3.1001
259008,1.9083,3.1066
259009,1.9083,3.1074
259010,1.9099,3.1163
259011,1.9131,3.1074
259012,1.9155,3.1074
259013,1.9091,3.1251
259014,1.9091,3.1259
259015,1.9083,3.1324
259016,1.9115,3.1171
259017,1.9139,3.1372
259018,1.9083,3.1251
259019,1.9115,3.1380
259020,1.9171,3.1461
259021,1.9188,3.1412
259022,1.9059,3.1388
259023,1.9196,3.1429
259024,1.9099,3.1445
259025,1.9083,3.1445
259026,1.9083,3.1485
259027,1.9099,3.1469
259028,1.9131,3.1461
259029,1.9075,3.1453
259030,1.9131,3.1461
259031,1.9099,3.1469
259032,1.9131,3.1445
259033,1.9091,3.1461
259034,1.9099,3.1469
259035,1.9099,3.1437
259036,1.9099,3.1574
259037,1.9163,3.1421
259038,1.9139,3.1461
259039,1.9123,3.1388
259040,1.9163,3.1412
259041,1.9179,3.1445
259042,1.9155,3.1445
259043,1.9115,3.1412
259044,1.9083,3.1421
259045,1.9107,3.1404
259046,1.9155,3.1453
259047,1.9204,3.1453
259048,1.9139,3.1461
259049,1.9123,3.1421
259050,1.9091,3.1453
259051,1.9139,3.1380
259052,1.9139,3.1437
259053,1.9107,3.1469
259054,1.9099,3.1332
259055,1.9196,3.1388
259056,1.9131,3.1388
259057,1.9171,3.1461
259058,1.9123,3.1421
259059,1.9115,3.1453
259060,1.9163,3.1421
259061,1.9171,3.1356
259062,1.9099,3.1404
259063,1.9107,3.1404
259064,1.9107,3.1380
259065,1.9155,3.1340
259066,1.9155,3.1356
259067,1.9091,3.1372
259068,1.9212,3.1340
259069,1.9107,3.1404
259070,1.9123,3.1437
259071,1.9163,3.1316
259072,1.9075,3.1292
259073,1.9091,3.1284
259074,1.9099,3.1340
259075,1.9139,3.1332
259076,1.9163,3.1130
259077,1.9099,3.1074
259078,1.9115,3.1058
259079,1.9147,3.1001
259080,1.9196,3.0921
259081,1.9139,3.0840
259082,1.9075,3.0800
259083,1.9131,3.0647
259084,1.9123,3.0599
259085,1.9171,3.0534
259086,1.9155,3.0413
259087,1.9107,3.0308
259088,1.9099,3.0123
259089,1.9091,3.0051
259090,1.9171,2.9962
259091,1.9123,2.9777
259092,1.9155,2.9712
259093,1.9091,2.9551
259094,1.9123,2.9277
259095,1.9155,2.9011
259096,1.9131,2.8640
259097,1.9067,2.8415
259098,1.9091,2.8004
259099,1.9059,2.7577
259100,1.9059,2.7286
259101,1.8994,2.7053
259102,1.9075,2.6956
259103,1.9051,2.6867
259104,1.8994,2.6892
259105,1.9010,2.6843
259106,1.9042,2.6924
259107,1.8986,2.6924
259108,1.8994,2.7093
259109,1.9002,2.7045
259110,1.8978,2.7133
259111,1.9026,2.7206
259112,1.8970,2.7327
259113,1.9002,2.7383
259114,1.9026,2.7448
259115,1.8994,2.7472
259116,1.8994,2.7617
259117,1.8978,2.7681
259118,1.9018,2.7746
259119,1.9026,2.7834
259120,1.9034,2.7899
259121,1.9059,2.7963
259122,1.9042,2.7979
259123,1.8970,2.8084
259124,1.9075,2.8125
259125,1.9067,2.8213
259126,1.9002,2.8221
259127,1.9002,2.8237
259128,1.9059,2.8326
259129,1.9083,2.8390
259130,1.9010,2.8366
259131,1.9026,2.8455
259132,1.9123,2.8495
259133,1.9067,2.8495
259134,1.9107,2.8568
259135,1.9099,2.8608
259136,1.9083,2.8648
259137,1.9083,2.8713
259138,1.9075,2.8761
259139,1.9171,2.8874
259140,1.9091,2.8826
259141,1.9075,2.8834
259142,1.9107,2.9011
259143,1.9091,2.9051
259144,1.9212,2.9100
259145,1.9107,2.9124
259146,1.9131,2.9196
259147,1.9204,2.9245
259148,1.9212,2.9277
259149,1.9188,2.9349
259150,1.9171,2.9390
259151,1.9212,2.9454
259152,1.9212,2.9422
259153,1.9171,2.9527
259154,1.9131,2.9527
259155,1.9204,2.9567
259156,1.9204,2.9615
259157,1.9212,2.9632
259158,1.9212,2.9607
259159,1.9204,2.9712
259160,1.9268,2.9752
259161,1.9244,2.9760
259162,1.8978,2.9825
259163,1.9316,2.9841
259164,1.9300,2.9914
259165,1.9220,2.9922
259166,1.9228,2.9970
259167,1.9260,3.0042
259168,1.9171,3.0083
259169,1.9252,3.0083
259170,1.9268,3.0155
259171,1.9252,3.0212
259172,1.9212,3.0228
259173,1.9268,3.0292
259174,1.9268,3.0381
259175,1.9510,3.0300
259176,1.9316,3.0341
259177,1.9067,3.0429
259178,1.9429,3.0462
259179,1.9357,3.0478
259180,1.9188,3.0445
259181,1.9220,3.0445
259182,1.9252,3.0558
259183,1.9413,3.0534
259184,1.9212,3.0470
259185,1.9333,3.0437
259186,1.9268,3.0349
259187,1.9325,3.0308
259188,1.9268,3.0260
259189,1.9188,3.0107
259190,1.9316,3.0042
259191,1.9268,2.9857
259192,1.9357,2.9785
259193,1.9308,2.9672
259194,1.9292,2.9535
259195,1.9333,2.9519
259196,1.9349,2.9511
259197,1.9228,2.9285
259198,1.9260,2.9237
259199,1.9381,2.9019
259200,1.9292,2.8874
259201,1.9252,2.8777
259202,1.9284,2.8705
259203,1.9308,2.8624
259204,1.9252,2.8495
259205,1.9252,2.8374
259206,1.9244,2.8294
259207,1.9292,2.8237
259208,1.9236,2.8165
259209,1.9220,2.8084
259210,1.9333,2.7963
259211,1.9244,2.7915
259212,1.9236,2.7899
259213,1.9252,2.7730
259214,1.9220,2.7705
259215,1.9252,2.7601
259216,1.9212,2.7520
259217,1.9244,2.7488
259218,1.9212,2.7472
259219,1.9268,2.7375
259220,1.9212,2.7327
259221,1.8978,2.7246
259222,1.9212,2.7206
259223,1.9139,2.7149
259224,1.9220,2.7101
259225,1.9212,2.7045
259226,1.9212,2.7021
259227,1.9212,2.6948
259228,1.9204,2.6956
259229,1.9212,2.6867
259230,1.9212,2.6827
259231,1.9220,2.6795
259232,1.9099,2.6763
259233,1.9260,2.6690
259234,1.9204,2.6690
259235,1.9268,2.6690
259236,1.9139,2.6650
259237,1.9010,2.6618
259238,1.9139,2.6577
259239,1.9179,2.6545
259240,1.9171,2.6537
259241,1.9171,2.6481
259242,1.9123,2.6448
259243,1.9099,2.6432
259244,1.9260,2.6424
259245,1.9099,2.6408
259246,1.9212,2.6408
259247,1.9260,2.6352
259248,1.9188,2.6336
259249,1.9163,2.6295
259250,1.9349,2.6303
259251,1.9188,2.6295
259252,1.9075,2.6279
259253,1.9188,2.6263
259254,1.9171,2.6247
259255,1.9325,2.6215
259256,1.8994,2.6174
259257,1.9204,2.6199
259258,1.9123,2.6174
259259,1.9139,2.6166
259260,1.9212,2.6174
259261,1.9083,2.6174
259262,1.9163,2.6158
259263,1.9212,2.6150
259264,1.9083,2.6166
259265,1.9212,2.6150
259266,1.9123,2.6134
259267,1.9075,2.6126
259268,1.9091,2.6134
259269,1.9099,2.6134
259270,1.9171,2.6102
259271,1.9139,2.6142
259272,1.9115,2.6094
259273,1.9099,2.6142
259274,1.9107,2.6102
259275,1.9083,2.6110
259276,1.9155,2.6070
259277,1.9123,2.6094
259278,1.9212,2.6094
259279,1.9171,2.6102
259280,1.9107,2.6102
259281,1.9155,2.6126
259282,1.9083,2.6118
259283,1.9099,2.6110
259284,1.9155,2.6126
259285,1.9107,2.6134
259286,1.9123,2.6158
259287,1.9123,2.6134
259288,1.9139,2.6166
259289,1.9107,2.6182
259290,1.9188,2.6207
259291,1.9107,2.6215
259292,1.9131,2.6263
259293,1.9107,2.6263
259294,1.9196,2.6287
259295,1.9107,2.6287
259296,1.9123,2.6336
259297,1.9099,2.6344
259298,1.9107,2.6408
259299,1.9155,2.6432
259300,1.9099,2.6440
259301,1.9123,2.6464
259302,1.9123,2.6489
259303,1.9163,2.6553
259304,1.9123,2.6618
259305,1.9196,2.6674
259306,1.9171,2.6690
259307,1.9155,2.6738
259308,1.9196,2.6803
259309,1.9171,2.6867
259310,1.9131,2.6908
259311,1.9196,2.6996
259312,1.9212,2.6996
259313,1.9171,2.7069
259314,1.9171,2.7158
259315,1.9212,2.7246
259316,1.9123,2.7327
259317,1.9188,2.7166
259318,1.9212,2.7432
259319,1.9196,2.7472
259320,1.9228,2.7552
259321,1.9196,2.7609
259322,1.9163,2.7617
259323,1.9155,2.7633
259324,1.9212,2.7859
259325,1.9188,2.7907
259326,1.9212,2.8036
259327,1.9188,2.8108
259328,1.9220,2.8197
259329,1.9196,2.8447
259330,1.9171,2.8374
259331,1.9115,2.8495
259332,1.9268,2.8624
259333,1.9220,2.8729
259334,1.9204,2.8664
259335,1.9212,2.8874
259336,1.9284,2.9406
259337,1.9244,2.8713
259338,1.9196,2.9358
259339,1.9316,2.9293
259340,1.9252,2.9478
259341,1.9284,2.9551
259342,1.9300,2.9615
259343,1.9252,2.9696
259344,1.9268,2.9785
259345,1.9220,2.9930
259346,1.9300,2.9785
259347,1.9204,3.0042
259348,1.9333,3.0590
259349,1.9292,3.0212
259350,1.9284,3.0260
259351,1.9252,3.0325
259352,1.9244,3.0470
259353,1.9244,3.0518
259354,1.9252,3.0808
259355,1.9260,3.0663
259356,1.9284,3.0736
259357,1.9292,3.0760
259358,1.9284,3.0840
259359,1.9252,3.0873
259360,1.9268,3.0744
259361,1.9381,3.1001
259362,1.9292,3.1082
259363,1.9292,3.1106
259364,1.9268,3.1179
259365,1.9252,3.1211
259366,1.9252,3.1638
259367,1.9349,3.1074
259368,1.9260,3.1421
259369,1.9316,3.1493
259370,1.9333,3.1541
259371,1.9381,3.1598
259372,1.9228,3.1590
259373,1.9373,3.1727
259374,1.9300,3.1743
259375,1.9212,3.1823
259376,1.9341,3.1864
259377,1.9284,3.1936
259378,1.9300,3.1872
259379,1.9252,3.1968
259380,1.9220,3.1952
259381,1.9212,3.2033
259382,1.9252,3.2089
259383,1.9252,3.2396
259384,1.9260,3.2162
259385,1.9325,3.2186
259386,1.9292,3.2226
259387,1.9341,3.2283
259388,1.9284,3.2259
259389,1.9300,3.2347
259390,1.9260,3.2363
259391,1.9292,3.2363
259392,1.9236,3.2379
259393,1.9244,3.2484
259394,1.9284,3.2363
259395,1.9333,3.2420
259396,1.9292,3.2404
259397,1.9268,3.2412
259398,1.9300,3.2476
259399,1.9220,3.2500
259400,1.9212,3.2492
259401,1.9325,3.2355
259402,1.9268,3.2516
259403,1.9260,3.2492
259404,1.9292,3.2436
259405,1.9212,3.2388
259406,1.9260,3.2363
259407,1.9316,3.2355
259408,1.9212,3.2331
259409,1.9212,3.2291
259410,1.9212,3.2291
259411,1.9308,3.2347
259412,1.9268,3.2444
259413,1.9268,3.2331
259414,1.9268,3.2323
259415,1.9236,3.2492
259416,1.9236,3.2436
259417,1.9212,3.2436
259418,1.9212,3.2444
259419,1.9260,3.2500
259420,1.9212,3.2476
259421,1.9188,3.2363
259422,1.9204,3.2581
259423,1.9163,3.2774
259424,1.9220,3.2734
259425,1.9220,3.2597
259426,1.9204,3.3000
259427,1.9212,3.3000
259428,1.9196,3.2936
259429,1.9220,3.2307
259430,1.9155,3.2936
259431,1.9212,3.3000
259432,1.9171,3.3000
259433,1.9204,3.3000
259434,1.9155,3.2637
259435,1.9212,3.3000
259436,1.9212,3.3000
259437,1.9204,3.3000
259438,1.9212,3.3000
259439,1.9220,3.3000
259440,1.9123,3.3000
259441,1.9212,3.3000
259442,1.9155,3.3000
259443,1.9139,3.3000
259444,1.9212,3.3000
259445,1.9171,3.3000
259446,1.9188,3.3000
259447,1.9163,3.3000
259448,1.9163,3.3000
259449,1.9163,3.3000
259450,1.9212,3.3000
259451,1.9131,3.3000
259452,1.9196,3.3000
259453,1.9220,3.3000
259454,1.9155,3.3000
259455,1.9171,3.3000
259456,1.9171,3.3000
259457,1.9212,3.3000
259458,1.9163,3.3000
259459,1.9099,3.3000
259460,1.9163,3.3000
259461,1.9163,3.3000
259462,1.9171,3.3000
259463,1.9155,3.3000
259464,1.9171,3.3000
259465,1.9155,3.3000
259466,1.9196,3.3000
259467,1.9155,3.3000
259468,1.9188,3.3000
259469,1.9171,3.3000
259470,1.9163,3.3000
259471,1.9091,3.3000
259472,1.9147,3.3000
259473,1.9131,3.3000
259474,1.9155,3.3000
259475,1.9091,3.3000
259476,1.9188,3.3000
259477,1.9107,3.3000
259478,1.9155,3.3000
259479,1.9099,3.3000
259480,1.9155,3.3000
259481,1.9131,3.3000
259482,1.9091,3.3000
259483,1.9099,3.3000
259484,1.9107,3.3000
259485,1.9155,3.3000
259486,1.9139,3.3000
259487,1.9123,3.3000
259488,1.9083,3.3000
259489,1.9091,3.3000
259490,1.9026,3.3000
259491,1.9131,3.3000
259492,1.9107,3.3000
259493,1.9171,3.3000
259494,1.9083,3.3000
259495,1.9067,3.3000
259496,1.9123,3.3000
259497,1.9042,3.3000
259498,1.9091,3.3000
259499,1.9075,3.3000
259500,1.9171,3.3000
259501,1.9099,3.3000
259502,1.9107,3.3000
259503,1.9123,3.3000
259504,1.9139,3.3000
259505,1.9026,3.3000
259506,1.9091,3.3000
259507,1.9075,3.3000
259508,1.9059,3.3000
259509,1.9034,3.3000
259510,1.9075,3.3000
259511,1.9107,3.3000
259512,1.9067,3.3000
259513,1.9067,3.3000
259514,1.9051,3.3000
259515,1.9059,3.3000
259516,1.9083,3.3000
259517,1.9083,3.3000
259518,1.9059,3.3000
259519,1.9139,3.3000
259520,1.9026,3.3000
259521,1.9067,3.3000
259522,1.8994,3.3000
259523,1.9026,3.3000
259524,1.9010,3.3000
259525,1.9083,3.3000
259526,1.9042,3.3000
259527,1.9034,3.3000
259528,1.9034,3.3000
259529,1.8970,3.3000
259530,1.8938,3.3000
259531,1.8954,3.3000
259532,1.8994,3.3000
259533,1.8954,3.3000
259534,1.9034,3.3000
259535,1.8962,3.3000
259536,1.9002,3.3000
259537,1.8954,3.3000
259538,1.8994,3.3000
259539,1.8954,3.3000
259540,1.8962,3.3000
259541,1.8946,3.3000
259542,1.8954,3.3000
259543,1.8905,3.3000
259544,1.8938,3.3000
259545,1.9002,3.3000
259546,1.8865,3.3000
259547,1.8954,3.3000
259548,1.8954,3.3000
259549,1.8905,3.3000
259550,1.8970,3.3000
259551,1.8873,3.3000
259552,1.8865,3.3000
259553,1.8954,3.3000
259554,1.8849,3.3000
259555,1.8881,3.3000
259556,1.8857,3.3000
259557,1.8946,3.3000
259558,1.8922,3.3000
259559,1.8930,3.3000
259560,1.8930,3.3000
259561,1.8905,3.3000
259562,1.8833,3.3000
259563,1.8914,3.3000
259564,1.8914,3.3000
259565,1.8849,3.3000
259566,1.8914,3.3000
259567,1.8914,3.3000
259568,1.8938,3.3000
259569,1.8841,3.3000
259570,1.8865,3.3000
259571,1.8841,3.3000
259572,1.8809,3.3000
259573,1.8897,3.3000
259574,1.8873,3.3000
259575,1.8889,3.2960
259576,1.8849,3.3000
259577,1.8865,3.3000
259578,1.8922,3.3000
259579,1.8938,3.3000
259580,1.8849,3.2960
259581,1.8873,3.3000
259582,1.8841,3.2960
259583,1.8833,3.2960
259584,1.8897,3.3000
259585,1.8881,3.2992
259586,1.8841,3.2936
259587,1.8905,3.2984
259588,1.8914,3.2952
259589,1.8905,3.2903
259590,1.8825,3.2863
259591,1.8881,3.2936
259592,1.8817,3.2960
259593,1.8841,3.2960
259594,1.8865,3.2919
259595,1.8873,3.2895
259596,1.8841,3.2919
259597,1.8833,3.3000
259598,1.8825,3.2992
259599,1.8865,3.2992
259600,1.8905,3.2968
259601,1.8841,3.2984
259602,1.8873,3.2919
259603,1.8825,3.3000
259604,1.8865,3.2952
259605,1.8825,3.3000
259606,1.8881,3.3000
259607,1.8849,3.3000
259608,1.8914,3.3000
259609,1.8809,3.3000
259610,1.8897,3.3000
259611,1.8849,3.3000
259612,1.8857,3.3000
259613,1.8865,3.3000
259614,1.8849,3.3000
259615,1.8841,3.3000
259616,1.8809,3.3000
259617,1.8801,3.3000
259618,1.8881,3.3000
259619,1.8897,3.3000
259620,1.8801,3.3000
259621,1.8817,3.3000
259622,1.8825,3.3000
259623,1.8849,3.3000
259624,1.8905,3.3000
259625,1.8768,3.3000
259626,1.8817,3.3000
259627,1.8785,3.3000
259628,1.8849,3.3000
259629,1.8833,3.3000
259630,1.8865,3.3000
259631,1.8833,3.3000
259632,1.8841,3.3000
259633,1.8841,3.3000
259634,1.8825,3.3000
259635,1.8817,3.3000
259636,1.8817,3.3000
259637,1.8785,3.3000
259638,1.8817,3.3000
259639,1.8793,3.3000
259640,1.8833,3.3000
259641,1.8793,3.3000
259642,1.8857,3.3000
259643,1.8849,3.3000
259644,1.8801,3.2936
259645,1.8865,3.3000
259646,1.8720,3.3000
259647,1.8712,3.3000
259648,1.8785,3.3000
259649,1.9083,3.3000
259650,1.8744,3.3000
259651,1.8712,3.3000
259652,1.8752,3.3000
259653,1.8768,3.2992
259654,1.8777,3.3000
259655,1.8680,3.3000
259656,1.8768,3.3000
259657,1.8728,3.3000
259658,1.8768,3.3000
259659,1.8833,3.3000
259660,1.8785,3.2984
259661,1.8930,3.3000
259662,1.8744,3.2936
259663,1.8785,3.2952
259664,1.8752,3.2936
259665,1.8591,3.2903
259666,1.8768,3.2944
259667,1.8785,3.2911
259668,1.8672,3.2887
259669,1.8712,3.2903
259670,1.8720,3.2911
259671,1.8720,3.2879
259672,1.8728,3.2831
259673,1.8704,3.2807
259674,1.8656,3.2879
259675,1.8640,3.2831
259676,1.8680,3.2766
259677,1.8696,3.2839
259678,1.8728,3.2742
259679,1.8752,3.2710
259680,1.8696,3.2758
259681,1.8688,3.2871
259682,1.8712,3.2718
259683,1.8744,3.2710
259684,1.8736,3.2702
259685,1.8696,3.2734
259686,1.8680,3.2702
259687,1.8728,3.2670
259688,1.8696,3.2670
259689,1.8696,3.2645
259690,1.8664,3.2702
259691,1.8720,3.2629
259692,1.8696,3.2637
259693,1.8704,3.2621
259694,1.8752,3.2581
259695,1.8696,3.2597
259696,1.8704,3.2500
259697,1.8688,3.2476
259698,1.8696,3.2452
259699,1.8696,3.2371
259700,1.8768,3.2323
259701,1.8688,3.2105
259702,1.8696,3.1920
259703,1.8680,3.1703
259704,1.8696,3.1372
259705,1.8615,3.1130
259706,1.8696,3.0889
259707,1.8648,3.0566
259708,1.8615,3.0333
259709,1.8543,3.0018
259710,1.8648,2.9777
259711,1.8575,2.9527
259712,1.8551,2.9253
259713,1.8623,2.8858
259714,1.8559,2.8713
259715,1.8551,2.8503
259716,1.8567,2.8342
259717,1.8495,2.8141
259718,1.8495,2.7947
259719,1.8349,2.7810
259720,1.8446,2.7641
259721,1.8462,2.7464
259722,1.8495,2.7335
259723,1.8486,2.7190
259724,1.8470,2.7053
259725,1.8438,2.6924
259726,1.8430,2.6803
259727,1.8438,2.6698
259728,1.8438,2.6585
259729,1.8398,2.6464
259730,1.8422,2.6424
259731,1.8559,2.6303
259732,1.8358,2.6190
259733,1.8438,2.6150
259734,1.8567,2.6029
259735,1.8382,2.5973
259736,1.8349,2.5900
259737,1.8382,2.5828
259738,1.8390,2.5747
259739,1.8366,2.5699
259740,1.8325,2.5659
259741,1.8398,2.5586
259742,1.8309,2.5538
259743,1.8349,2.5489
259744,1.8486,2.5417
259745,1.8325,2.5377
259746,1.8293,2.5296
259747,1.8333,2.5288
259748,1.8430,2.5215
259749,1.8382,2.5175
259750,1.8317,2.5167
259751,1.8333,2.5127
259752,1.8301,2.5111
259753,1.8317,2.5054
259754,1.8438,2.4998
259755,1.8349,2.4966
259756,1.8390,2.4933
259757,1.8333,2.4901
259758,1.8438,2.4885
259759,1.8317,2.4885
259760,1.8293,2.4853
259761,1.8301,2.4837
259762,1.8293,2.4748
259763,1.8293,2.4724
259764,1.8309,2.4684
259765,1.8462,2.4667
259766,1.8446,2.4667
259767,1.8333,2.4627
259768,1.8301,2.4627
259769,1.8358,2.4619
259770,1.8341,2.4619
259771,1.8317,2.4555
259772,1.8358,2.4555
259773,1.8237,2.4538
259774,1.8269,2.4522
259775,1.8366,2.4522
259776,1.8349,2.4490
259777,1.8366,2.4458
259778,1.8333,2.4482
259779,1.8358,2.4442
259780,1.8422,2.4410
259781,1.8382,2.4426
259782,1.8414,2.4393
259783,1.8414,2.4418
259784,1.8398,2.4377
259785,1.8422,2.4393
259786,1.8406,2.4369
259787,1.8398,2.4377
259788,1.8430,2.4369
259789,1.8398,2.4377
259790,1.8422,2.4353
259791,1.8398,2.4361
259792,1.8438,2.4377
259793,1.8478,2.4361
259794,1.8390,2.4361
259795,1.8438,2.4369
259796,1.8422,2.4369
259797,1.8519,2.4361
259798,1.8430,2.4345
259799,1.8438,2.4345
259800,1.8438,2.4369
259801,1.8438,2.4369
259802,1.8382,2.4361
259803,1.8470,2.4361
259804,1.8470,2.4353
259805,1.8406,2.4329
259806,1.8438,2.4297
259807,1.8438,2.4111
259808,1.8422,2.3990
259809,1.8438,2.3781
259810,1.8382,2.3571
259811,1.8414,2.3265
259812,1.8325,2.3289
259813,1.8333,2.3225
259814,1.8438,2.2975
259815,1.8333,2.3459
259816,1.8309,2.3547
259817,1.8366,2.3644
259818,1.8349,2.3684
259819,1.8398,2.3579
259820,1.8390,2.3571
259821,1.8333,2.3523
259822,1.8317,2.3588
259823,1.8333,2.3362
259824,1.8333,2.3168
259825,1.8317,2.3281
259826,1.8358,2.3007
259827,1.8317,2.2741
259828,1.8261,2.2621
259829,1.8301,2.2564
259830,1.8229,2.2387
259831,1.8293,2.2911
259832,1.8269,2.2846
259833,1.8293,2.2999
259834,1.8269,2.2935
259835,1.8325,2.3032
259836,1.8293,2.2967
259837,1.8277,2.2975
259838,1.8317,2.3040
259839,1.8317,2.3056
259840,1.8358,2.2878
259841,1.8285,2.2822
259842,1.8317,2.2637
259843,1.8221,2.2516
259844,1.8253,2.2330
259845,1.8212,2.2282
259846,1.8188,2.2161
259847,1.8237,2.2201
259848,1.8221,2.2330
259849,1.8204,2.2564
259850,1.8261,2.2725
259851,1.8285,2.2717
259852,1.8301,2.2637
259853,1.8269,2.2637
259854,1.8261,2.2693
259855,1.8237,2.2604
259856,1.8277,2.2822
259857,1.8261,2.2653
259858,1.8349,2.2524
259859,1.8261,2.2347
259860,1.8188,2.2185
259861,1.8269,2.2048
259862,1.8221,2.1903
259863,1.8156,2.2081
259864,1.8196,2.1710
259865,1.8212,2.2161
259866,1.8269,2.2347
259867,1.8253,2.2548
259868,1.8285,2.2548
259869,1.8196,2.2484
259870,1.8261,2.2484
259871,1.8204,2.2564
259872,1.8229,2.2612
259873,1.8221,2.2564
259874,1.8237,2.2564
259875,1.8261,2.2379
259876,1.8221,2.2169
259877,1.8253,2.2032
259878,1.8204,2.1790
259879,1.8180,2.1742
259880,1.8196,2.1718
259881,1.8221,2.1847
259882,1.8180,2.1903
259883,1.8277,2.2282
259884,1.8301,2.2403
259885,1.8293,2.2411
259886,1.8269,2.2282
259887,1.8269,2.2314
259888,1.8309,2.2330
259889,1.8221,2.2467
259890,1.8293,2.2363
259891,1.8261,2.2298
259892,1.8196,2.1895
259893,1.8229,2.1871
259894,1.8309,2.1460
259895,1.8237,2.1557
259896,1.8188,2.1508
259897,1.8188,2.1525
259898,1.8180,2.1710
259899,1.8221,2.1790
259900,1.8229,2.2193
259901,1.8293,2.2185
259902,1.8237,2.2161
259903,1.8285,2.2411
259904,1.8180,2.2250
259905,1.8180,2.2314
259906,1.8269,2.2330
259907,1.8261,2.2258
259908,1.8221,2.2073
259909,1.8277,2.1944
259910,1.8261,2.1799
259911,1.8196,2.1621
259912,1.8196,2.1388
259913,1.8229,2.1299
259914,1.8180,2.1525
259915,1.8180,2.1686
259916,1.8188,2.2081
259917,1.8221,2.2089
259918,1.8221,2.2218
259919,1.8237,2.2064
259920,1.8269,2.2177
259921,1.8261,2.1976
259922,1.8229,2.2298
259923,1.8293,2.2185
259924,1.8293,2.2218
259925,1.8253,2.2048
259926,1.8269,2.1871
259927,1.8229,2.1702
259928,1.8188,2.1500
259929,1.8212,2.1452
259930,1.8188,2.1396
259931,1.8188,2.1533
259932,1.8188,2.1702
259933,1.8196,2.1799
259934,1.8261,2.2105
259935,1.8229,2.2056
259936,1.8285,2.2121
259937,1.8237,2.2056
259938,1.8212,2.2201
259939,1.8229,2.2298
259940,1.8269,2.2234
259941,1.8261,2.2105
259942,1.8229,2.1960
259943,1.8204,2.1815
259944,1.8196,2.1653
259945,1.8180,2.1508
259946,1.8180,2.1436
259947,1.8172,2.1428
259948,1.8188,2.1557
259949,1.8148,2.1790
259950,1.8180,2.1936
259951,1.8221,2.2073
259952,1.8188,2.2105
259953,1.8221,2.2105
259954,1.8196,2.2113
259955,1.8221,2.2298
259956,1.8212,2.2306
259957,1.8188,2.2266
259958,1.8204,2.2137
259959,1.8204,2.1976
259960,1.8221,2.1992
259961,1.8221,2.1670
259962,1.8180,2.1508
259963,1.8188,2.1452
259964,1.8172,2.1533
259965,1.8212,2.1662
259966,1.8180,2.1839
259967,1.8148,2.2056
259968,1.8188,2.2185
259969,1.8221,2.2177
259970,1.8261,2.2250
259971,1.8204,2.2347
259972,1.8229,2.2459
259973,1.8269,2.2524
259974,1.8285,2.2435
259975,1.8317,2.2355
259976,1.8269,2.2218
259977,1.8253,2.2032
259978,1.8277,2.1831
259979,1.8204,2.1702
259980,1.8196,2.1686
259981,1.8269,2.1839
259982,1.8229,2.1984
259983,1.8269,2.2177
259984,1.8293,2.2363
259985,1.8293,2.2540
259986,1.8317,2.2475
259987,1.8325,2.2484
259988,1.8366,2.2645
259989,1.8422,2.2774
259990,1.8422,2.2790
259991,1.8382,2.2661
259992,1.8438,2.2524
259993,1.8422,2.2427
259994,1.8390,2.2250
259995,1.8390,2.2056
259996,1.8341,2.1911
259997,1.8398,2.1952
259998,1.8358,2.2064
259999,1.8341,2.2282
260000,1.8382,2.2427
260001,1.8430,2.2612
260002,1.8430,2.2637
260003,1.8438,2.2645
260004,1.8438,2.2766
260005,1.8446,2.2822
260006,1.8422,2.2846
260007,1.8454,2.2741
260008,1.8543,2.2709
260009,1.8478,2.2572
260010,1.8430,2.2435
260011,1.8430,2.2266
260012,1.8430,2.2073
260013,1.8478,2.2024
260014,1.8398,2.2064
260015,1.8422,2.2234
260016,1.8430,2.2419
260017,1.8438,2.2621
260018,1.8462,2.2677
260019,1.8470,2.2701
260020,1.8438,2.2661
260021,1.8414,2.2806
260022,1.8462,2.2806
260023,1.8535,2.2838
260024,1.8519,2.2725
260025,1.8511,2.2580
260026,1.8511,2.2475
260027,1.8438,2.2282
260028,1.8438,2.2097
260029,1.8398,2.1952
260030,1.8438,2.1976
260031,1.8406,2.2048
260032,1.8398,2.2161
260033,1.8438,2.2435
260034,1.8430,2.2645
260035,1.8454,2.2564
260036,1.8430,2.2540
260037,1.8462,2.2564
260038,1.8438,2.2709
260039,1.8478,2.2701
260040,1.8438,2.2693
260041,1.8438,2.2556
260042,1.8422,2.2459
260043,1.8422,2.2290
260044,1.8414,2.2089
260045,1.8390,2.1919
260046,1.8325,2.1839
260047,1.8382,2.1799
260048,1.8349,2.2008
260049,1.8390,2.2177
260050,1.8398,2.2411
260051,1.8414,2.2516
260052,1.8406,2.2484
260053,1.8366,2.2443
260054,1.8438,2.2492
260055,1.8438,2.2596
260056,1.8438,2.2604
260057,1.8430,2.2532
260058,1.8430,2.2467
260059,1.8422,2.2306
260060,1.8414,2.2121
260061,1.8366,2.1968
260062,1.8358,2.1750
260063,1.8333,2.1678
260064,1.8317,2.1670
260065,1.8301,2.1919
260066,1.8366,2.2153
260067,1.8422,2.2322
260068,1.8333,2.2387
260069,1.8358,2.2322
260070,1.8390,2.2274
260071,1.8382,2.2451
260072,1.8349,2.2548
260073,1.8390,2.2508
260074,1.8422,2.2459
260075,1.8406,2.2298
260076,1.8358,2.2064
260077,1.8333,2.1960
260078,1.8293,2.1782
260079,1.8309,2.1637
260080,1.8261,2.1605
260081,1.8333,2.1702
260082,1.8293,2.1895
260083,1.8349,2.2129
260084,1.8317,2.2298
260085,1.8390,2.2306
260086,1.8382,2.2266
260087,1.8341,2.2338
260088,1.8382,2.2435
260089,1.8398,2.2443
260090,1.8366,2.2419
260091,1.8422,2.2314
260092,1.8366,2.2177
260093,1.8414,2.2048
260094,1.8333,2.1847
260095,1.8261,2.1670
260096,1.8317,2.1581
260097,1.8237,2.1637
260098,1.8301,2.1790
260099,1.8261,2.1968
260100,1.8309,2.2218
260101,1.8358,2.2379
260102,1.8333,2.2330
260103,1.8390,2.2363
260104,1.8333,2.2403
260105,1.8349,2.2540
260106,1.8349,2.2580
260107,1.8406,2.2508
260108,1.8333,2.2411
260109,1.8358,2.2258
260110,1.8349,2.2097
260111,1.8349,2.1936
260112,1.8301,2.1734
260113,1.8269,2.1718
260114,1.8309,2.1847
260115,1.8309,2.1944
260116,1.8325,2.2121
260117,1.8301,2.2306
260118,1.8349,2.2435
260119,1.8390,2.2419
260120,1.8398,2.2492
260121,1.8398,2.2564
260122,1.8446,2.2701
260123,1.8438,2.2709
260124,1.8470,2.2677
260125,1.8438,2.2588
260126,1.8438,2.2451
260127,1.8470,2.2306
260128,1.8438,2.2161
260129,1.8414,2.2048
260130,1.8438,2.2064
260131,1.8430,2.2177
260132,1.8438,2.2298
260133,1.8414,2.2387
260134,1.8430,2.2564
260135,1.8478,2.2701
260136,1.8446,2.2806
260137,1.8462,2.2878
260138,1.8527,2.3040
260139,1.8478,2.3104
260140,1.8656,2.3168
260141,1.8607,2.3136
260142,1.8591,2.3080
260143,1.8567,2.2911
260144,1.8640,2.2749
260145,1.8656,2.2621
260146,1.8615,2.2653
260147,1.8559,2.2685
260148,1.8495,2.2693
260149,1.8623,2.2766
260150,1.8615,2.2967
260151,1.8623,2.2999
260152,1.8680,2.3136
260153,1.8680,2.3281
260154,1.8640,2.3418
260155,1.8696,2.3571
260156,1.8696,2.3684
260157,1.8712,2.3845
260158,1.8696,2.3862
260159,1.8712,2.3813
260160,1.8744,2.3708
260161,1.8768,2.3563
260162,1.8704,2.3499
260163,1.8768,2.3547
260164,1.8777,2.3555
260165,1.8752,2.3596
260166,1.8768,2.3620
260167,1.8760,2.3636
260168,1.8954,2.3765
260169,1.8768,2.3829
260170,1.8817,2.3934
260171,1.8768,2.3974
260172,1.8817,2.4095
260173,1.8841,2.4160
260174,1.8785,2.4297
260175,1.8825,2.4369
260176,1.8865,2.4264
260177,1.8817,2.4168
260178,1.8865,2.4071
260179,1.8817,2.4007
260180,1.8841,2.4111
260181,1.8865,2.4103
260182,1.8841,2.4095
260183,1.8841,2.4095
260184,1.8833,2.4160
260185,1.8849,2.4192
260186,1.8865,2.4248
260187,1.8865,2.4256
260188,1.8833,2.4297
260189,1.8897,2.4410
260190,1.8930,2.4385
260191,1.8905,2.4490
260192,1.8873,2.4498
260193,1.8905,2.4498
260194,1.8897,2.4369
260195,1.8897,2.4329
260196,1.8938,2.4264
260197,1.8954,2.4321
260198,1.8946,2.4361
260199,1.8930,2.4353
260200,1.8946,2.4329
260201,1.8946,2.4369
260202,1.8946,2.4377
260203,1.8897,2.4442
260204,1.8954,2.4458
260205,1.8938,2.4474
260206,1.8946,2.4490
260207,1.8914,2.4530
260208,1.8954,2.4643
260209,1.8954,2.4643
260210,1.8954,2.4555
260211,1.8954,2.4482
260212,1.8954,2.4514
260213,1.8986,2.4458
260214,1.9010,2.4482
260215,1.8986,2.4490
260216,1.9002,2.4506
260217,1.9034,2.4538
260218,1.8978,2.4547
260219,1.9075,2.4571
260220,1.8994,2.4603
260221,1.9059,2.4587
260222,1.9010,2.4627
260223,1.8962,2.4635
260224,1.9018,2.4708
260225,1.8994,2.4837
260226,1.8994,2.4845
260227,1.8905,2.4627
260228,1.8978,2.4627
260229,1.9042,2.4603
260230,1.9002,2.4627
260231,1.9099,2.4619
260232,1.9051,2.4627
260233,1.9067,2.4627
260234,1.9091,2.4651
260235,1.9010,2.4643
260236,1.9059,2.4667
260237,1.9051,2.4748
260238,1.9010,2.4748
260239,1.8970,2.4748
260240,1.9083,2.4877
260241,1.9059,2.4893
260242,1.9010,2.4958
260243,1.9067,2.4909
260244,1.9075,2.4708
260245,1.9115,2.4740
260246,1.9075,2.4716
260247,1.9107,2.4700
260248,1.9075,2.4732
260249,1.9107,2.4716
260250,1.9171,2.4748
260251,1.9091,2.4740
260252,1.9083,2.4748
260253,1.9196,2.4869
260254,1.9059,2.4893
260255,1.9034,2.4877
260256,1.9059,2.4893
260257,1.8970,2.4998
260258,1.9115,2.5062
260259,1.9075,2.5054
260260,1.9083,2.4958
260261,1.9107,2.4837
260262,1.9163,2.4845
260263,1.9091,2.4732
260264,1.9083,2.4748
260265,1.9083,2.4748
260266,1.9051,2.4829
260267,1.9107,2.4748
260268,1.9091,2.4837
260269,1.9099,2.4885
260270,1.9083,2.4925
260271,1.9107,2.4941
260272,1.9042,2.4958
260273,1.9083,2.5014
260274,1.9075,2.5070
260275,1.9067,2.5183
260276,1.9091,2.5086
260277,1.9067,2.4941
260278,1.9091,2.4845
260279,1.9107,2.4748
260280,1.9099,2.4829
260281,1.9099,2.4748
260282,1.9083,2.4853
260283,1.9131,2.4748
260284,1.9107,2.4861
260285,1.9099,2.4877
260286,1.9123,2.4925
260287,1.9091,2.4998
260288,1.9091,2.5022
260289,1.9099,2.5062
260290,1.9155,2.5159
260291,1.9123,2.5232
260292,1.9091,2.5215
260293,1.9139,2.5143
260294,1.9099,2.4941
260295,1.9083,2.4837
260296,1.9042,2.4812
260297,1.9163,2.4845
260298,1.9067,2.4885
260299,1.9131,2.4466
260300,1.9067,2.4877
260301,1.9099,2.4941
260302,1.9075,2.4998
260303,1.9179,2.5127
260304,1.9107,2.5167
260305,1.9083,2.5232
260306,1.9123,2.5344
260307,1.9139,2.5425
260308,1.9107,2.5409
260309,1.9188,2.5570
260310,1.9171,2.5183
260311,1.9107,2.4941
260312,1.9107,2.4869
260313,1.9123,2.4748
260314,1.9107,2.4837
260315,1.9115,2.4861
260316,1.9115,2.4885
260317,1.9107,2.4909
260318,1.9083,2.5046
260319,1.9123,2.5143
260320,1.9131,2.5070
260321,1.9163,2.5232
260322,1.9163,2.5393
260323,1.9204,2.5401
260324,1.9220,2.5360
260325,1.9212,2.5207
260326,1.9220,2.4958
260327,1.9212,2.4732
260328,1.9155,2.4530
260329,1.9179,2.4369
260330,1.9204,2.4273
260331,1.9171,2.4377
260332,1.9163,2.4458
260333,1.9171,2.4627
260334,1.9171,2.4708
260335,1.9188,2.4748
260336,1.9204,2.4627
260337,1.9212,2.4667
260338,1.9212,2.4748
260339,1.9179,2.4748
260340,1.9188,2.4651
260341,1.9196,2.4555
260342,1.9163,2.4361
260343,1.9139,2.4200
260344,1.9083,2.3974
260345,1.9002,2.3596
260346,1.9042,2.3668
260347,1.9010,2.3676
260348,1.9010,2.3797
260349,1.9010,2.3926
260350,1.9026,2.4039
260351,1.8978,2.3894
260352,1.9034,2.4007
260353,1.8954,2.3878
260354,1.8954,2.3910
260355,1.8954,2.3966
260356,1.8994,2.3853
260357,1.8914,2.3781
260358,1.8930,2.3612
260359,1.8914,2.3426
260360,1.8825,2.3201
260361,1.8857,2.3064
260362,1.8801,2.2862
260363,1.8712,2.2806
260364,1.8736,2.3032
260365,1.8785,2.2927
260366,1.8712,2.3104
260367,1.8704,2.3281
260368,1.8696,2.3136
260369,1.8736,2.3136
260370,1.8744,2.3104
260371,1.8696,2.3185
260372,1.8736,2.3096
260373,1.8696,2.3112
260374,1.8736,2.3023
260375,1.8720,2.2878
260376,1.8688,2.2749
260377,1.8672,2.2516
260378,1.8615,2.2637
260379,1.8615,2.2258
260380,1.8607,2.2306
260381,1.8551,2.2411
260382,1.8559,2.2556
260383,1.8583,2.2733
260384,1.8599,2.2782
260385,1.8567,2.2782
260386,1.8599,2.2701
260387,1.8583,2.2653
260388,1.8591,2.2782
260389,1.8559,2.2790
260390,1.8551,2.2693
260391,1.8527,2.2564
260392,1.8656,2.2451
260393,1.8551,2.2306
260394,1.8495,2.2121
260395,1.8446,2.2040
260396,1.8438,2.1871
260397,1.8446,2.1952
260398,1.8438,2.2048
260399,1.8495,2.2314
260400,1.8454,2.2459
260401,1.8462,2.2395
260402,1.8478,2.2185
260403,1.8511,2.2459
260404,1.8559,2.2492
260405,1.8511,2.2774
260406,1.8559,2.2556
260407,1.8438,2.2427
260408,1.8567,2.2306
260409,1.8454,2.2419
260410,1.8478,2.2048
260411,1.8438,2.1960
260412,1.8398,2.1750
260413,1.8398,2.1686
260414,1.8414,2.1879
260415,1.8398,2.1960
260416,1.8438,2.1968
260417,1.8422,2.2234
260418,1.8430,2.2048
260419,1.8446,2.2306
260420,1.8438,2.2290
260421,1.8446,2.2427
260422,1.8478,2.2338
260423,1.8470,2.2387
260424,1.8486,2.2226
260425,1.8414,2.2161
260426,1.8438,2.2129
260427,1.8430,2.1831
260428,1.8414,2.1662
260429,1.8382,2.1533
260430,1.8414,2.1371
260431,1.8406,2.1653
260432,1.8438,2.1879
260433,1.8398,2.2056
260434,1.8438,2.2105
260435,1.8333,2.2242
260436,1.8438,2.2177
260437,1.8438,2.2185
260438,1.8358,2.2306
260439,1.8406,2.2395
260440,1.8430,2.2322
260441,1.8430,2.2218
260442,1.8438,2.2177
260443,1.8390,2.1944
260444,1.8382,2.1790
260445,1.8382,2.1670
260446,1.8325,2.1621
260447,1.8398,2.1710
260448,1.8333,2.1847
260449,1.8390,2.2056
260450,1.8333,2.2234
260451,1.8325,2.2314
260452,1.8438,2.2347
260453,1.8390,2.2355
260454,1.8438,2.2379
260455,1.8438,2.2516
260456,1.8438,2.2580
260457,1.8422,2.2508
260458,1.8438,2.2330
260459,1.8438,2.2266
260460,1.8438,2.2073
260461,1.8438,2.2024
260462,1.8422,2.1863
260463,1.8422,2.1911
260464,1.8430,2.2008
260465,1.8406,2.2169
260466,1.8358,2.2290
260467,1.8438,2.2330
260468,1.8454,2.2427
260469,1.8446,2.2564
260470,1.8414,2.2733
260471,1.8438,2.2814
260472,1.8478,2.2862
260473,1.8551,2.2967
260474,1.8462,2.2951
260475,1.8446,2.3080
260476,1.8446,2.3112
260477,1.8527,2.3160
260478,1.8535,2.3249
260479,1.8535,2.3281
260480,1.8527,2.3297
260481,1.8607,2.3346
260482,1.8567,2.3418
260483,1.8591,2.3475
260484,1.8567,2.3507
260485,1.8559,2.3523
260486,1.8599,2.3596
260487,1.8615,2.3579
260488,1.8583,2.3612
260489,1.8656,2.3700
260490,1.8648,2.3620
260491,1.8623,2.3749
260492,1.8623,2.3781
260493,1.8615,2.3749
260494,1.8680,2.3845
260495,1.8640,2.3853
260496,1.8696,2.3853
260497,1.8696,2.3870
260498,1.8648,2.3902
260499,1.8696,2.3934
260500,1.8696,2.3942
260501,1.8680,2.3958
260502,1.8696,2.4007
260503,1.8680,2.4047
260504,1.8688,2.3934
260505,1.8696,2.4071
260506,1.8736,2.4087
260507,1.8736,2.4095
260508,1.8752,2.4119
260509,1.8712,2.4111
260510,1.8696,2.4168
260511,1.8720,2.4168
260512,1.8720,2.4184
260513,1.8768,2.4160
260514,1.8736,2.4232
260515,1.8720,2.4240
260516,1.8736,2.4248
260517,1.8744,2.4248
260518,1.8768,2.4264
260519,1.8736,2.4256
260520,1.8825,2.4313
260521,1.8768,2.4329
260522,1.8793,2.4369
260523,1.8768,2.4329
260524,1.8752,2.4361
260525,1.8736,2.4369
260526,1.8736,2.4369
260527,1.8785,2.4369
260528,1.8704,2.4361
260529,1.8785,2.4377
260530,1.8809,2.4458
260531,1.8752,2.4450
260532,1.8777,2.4506
260533,1.8777,2.4482
260534,1.8744,2.4466
260535,1.8785,2.4442
260536,1.8809,2.4579
260537,1.8785,2.4498
260538,1.8817,2.4522
260539,1.8744,2.4514
260540,1.8752,2.4538
260541,1.8752,2.4490
260542,1.8777,2.4466
260543,1.8801,2.4538
260544,1.8768,2.4514
260545,1.8785,2.4579
260546,1.8744,2.4522
260547,1.8768,2.4627
260548,1.8768,2.4611
260549,1.8801,2.4611
260550,1.8801,2.4627
260551,1.8768,2.4522
260552,1.8777,2.4627
260553,1.8793,2.4603
260554,1.8809,2.4675
260555,1.8744,2.4627
260556,1.8760,2.4635
260557,1.8793,2.4740
260558,1.8777,2.4684
260559,1.8777,2.4684
260560,1.8777,2.4716
260561,1.8777,2.4732
260562,1.8752,2.4732
260563,1.8736,2.4748
260564,1.8768,2.4748
260565,1.8720,2.4748
260566,1.8785,2.4732
260567,1.8785,2.4869
260568,1.8809,2.4837
260569,1.8801,2.4877
260570,1.8728,2.4885
260571,1.8752,2.4901
260572,1.8817,2.4998
260573,1.8841,2.4966
260574,1.8817,2.5006
260575,1.8817,2.4998
260576,1.8833,2.5086
260577,1.8825,2.5062
260578,1.8809,2.5095
260579,1.8793,2.5143
260580,1.8801,2.5143
260581,1.8825,2.5183
260582,1.8825,2.5215
260583,1.8752,2.5264
260584,1.8841,2.5320
260585,1.8809,2.5393
260586,1.8801,2.5352
260587,1.8881,2.5441
260588,1.8801,2.5594
260589,1.8841,2.5634
260590,1.8777,2.5683
260591,1.8777,2.5788
260592,1.8881,2.5900
260593,1.8849,2.6053
260594,1.8849,2.6102
260595,1.8865,2.6215
260596,1.8841,2.6319
260597,1.8833,2.6440
260598,1.8881,2.6593
260599,1.8857,2.6738
260600,1.8857,2.6875
260601,1.8849,2.7085
260602,1.8873,2.7158
260603,1.8914,2.7343
260604,1.8922,2.7448
260605,1.8865,2.7617
260606,1.8930,2.7794
260607,1.8905,2.7923
260608,1.8938,2.8068
260609,1.8954,2.8205
260610,1.8954,2.8358
260611,1.8938,2.8487
260612,1.9002,2.8737
260613,1.8946,2.8761
260614,1.8954,2.8874
260615,1.8962,2.9051
260616,1.8954,2.9221
260617,1.8954,2.9341
260618,1.8930,2.9519
260619,1.9034,2.9672
260620,1.8994,2.9696
260621,1.8954,2.9777
260622,1.8994,2.9914
260623,1.8954,3.0026
260624,1.9075,3.0067
260625,1.8994,3.0220
260626,1.9042,3.0228
260627,1.8994,3.0341
260628,1.9059,3.0437
260629,1.9059,3.0486
260630,1.9034,3.0558
260631,1.9083,3.0582
260632,1.9059,3.0687
260633,1.9107,3.0760
260634,1.9155,3.0776
260635,1.9107,3.0905
260636,1.9107,3.0945
260637,1.9059,3.0961
260638,1.9083,3.1026
260639,1.9099,3.1074
260640,1.9107,3.1114
260641,1.9067,3.1130
260642,1.9333,3.1163
260643,1.9075,3.1227
260644,1.9171,3.1259
260645,1.9139,3.1284
260646,1.9115,3.1155
260647,1.9042,3.1316
260648,1.8978,3.1332
260649,1.9139,3.1340
260650,1.9075,3.1437
260651,1.9083,3.1437
260652,1.9107,3.1437
260653,1.8954,3.1461
260654,1.9171,3.1509
260655,1.9147,3.1412
260656,1.9131,3.1517
260657,1.9220,3.1590
260658,1.9091,3.1590
260659,1.9091,3.1590
260660,1.9002,3.1743
260661,1.9091,3.1549
260662,1.8954,3.1614
260663,1.9083,3.1711
260664,1.9115,3.1590
260665,1.9139,3.1727
260666,1.9099,3.1743
260667,1.9034,3.1767
260668,1.9220,3.1646
260669,1.9034,3.1823
260670,1.8986,3.1848
260671,1.9091,3.1848
260672,1.9091,3.1856
260673,1.9099,3.1872
260674,1.9091,3.1848
260675,1.9139,3.1952
260676,1.9131,3.1888
260677,1.9155,3.1960
260678,1.9123,3.1977
260679,1.9123,3.1944
260680,1.9091,3.1977
260681,1.9107,3.1993
260682,1.9091,3.1985
260683,1.9107,3.1985
260684,1.9091,3.1968
260685,1.9131,3.1985
260686,1.9139,3.1985
260687,1.9042,3.1993
260688,1.9212,3.2081
260689,1.9091,3.1952
260690,1.9099,3.1952
260691,1.9131,3.1920
260692,1.9026,3.1848
260693,1.9220,3.1872
260694,1.9163,3.1856
260695,1.9075,3.1823
260696,1.9196,3.1767
260697,1.9067,3.1775
260698,1.9034,3.1678
260699,1.9123,3.1670
260700,1.9139,3.1638
260701,1.9099,3.1646
260702,1.9171,3.1533
260703,1.9099,3.1493
260704,1.9099,3.1485
260705,1.9099,3.1453
260706,1.9163,3.1380
260707,1.9091,3.1332
260708,1.9042,3.1292
260709,1.9163,3.1275
260710,1.9115,3.1300
260711,1.9155,3.1211
260712,1.9171,3.1163
260713,1.9091,3.1106
260714,1.9139,3.1074
260715,1.9212,3.1058
260716,1.9139,3.0985
260717,1.9188,3.0945
260718,1.9212,3.0897
260719,1.9083,3.0824
260720,1.9123,3.0800
260721,1.8986,3.0776
260722,1.9075,3.0679
260723,1.9042,3.0574
260724,1.9107,3.0542
260725,1.9083,3.0470
260726,1.9067,3.0421
260727,1.9147,3.0300
260728,1.9179,3.0212
260729,1.9107,3.0083
260730,1.9155,3.0026
260731,1.9196,2.9889
260732,1.9115,2.9768
260733,1.8954,2.9640
260734,1.9325,2.9438
260735,1.8954,2.9269
260736,1.9051,2.9035
260737,1.9099,2.8745
260738,1.9083,2.8447
260739,1.9107,2.8133
260740,1.9059,2.7697
260741,1.9067,2.7327
260742,1.8978,2.7021
260743,1.9002,2.6819
260744,1.9042,2.6698
260745,1.9026,2.6618
260746,1.8978,2.6577
260747,1.9075,2.6545
260748,1.8833,2.6561
260749,1.9034,2.6601
260750,1.9042,2.6610
260751,1.9026,2.6642
260752,1.9034,2.6642
260753,1.9059,2.6690
260754,1.8954,2.6690
260755,1.9002,2.6714
260756,1.9010,2.6738
260757,1.9010,2.6819
260758,1.9002,2.6851
260759,1.8962,2.6875
260760,1.8962,2.6908
260761,1.9042,2.6948
260762,1.9010,2.6964
260763,1.9042,2.6964
260764,1.9059,2.7004
260765,1.9083,2.7085
260766,1.9051,2.7166
260767,1.9026,2.7206
260768,1.8954,2.7206
260769,1.9034,2.7214
260770,1.9010,2.7254
260771,1.8994,2.7311
260772,1.9010,2.7278
260773,1.9067,2.7319
260774,1.9034,2.7335
260775,1.9131,2.7295
260776,1.9059,2.7286
260777,1.9075,2.7262
260778,1.9059,2.7286
260779,1.9099,2.7222
260780,1.9091,2.7214
260781,1.9075,2.7206
260782,1.9067,2.7182
260783,1.9091,2.7133
260784,1.8946,2.7085
260785,1.9091,2.6964
260786,1.9083,2.7053
260787,1.9083,2.6988
260788,1.9212,2.6956
260789,1.9083,2.6940
260790,1.9179,2.6875
260791,1.9115,2.6875
260792,1.9083,2.6835
260793,1.9107,2.6747
260794,1.9123,2.6738
260795,1.9155,2.6690
260796,1.9107,2.6682
260797,1.9163,2.6674
260798,1.9123,2.6618
260799,1.9212,2.6569
260800,1.9091,2.6521
260801,1.9139,2.6473
260802,1.9155,2.6553
260803,1.9171,2.6424
260804,1.9042,2.6295
260805,1.9083,2.6440
260806,1.9155,2.6376
260807,1.9075,2.6231
260808,1.9123,2.6408
260809,1.9188,2.6424
260810,1.9171,2.6223
260811,1.9155,2.6400
260812,1.9163,2.6199
260813,1.9163,2.6158
260814,1.9196,2.6134
260815,1.9188,2.6053
260816,1.9171,2.6070
260817,1.9163,2.6005
260818,1.9131,2.6037
260819,1.9212,2.6142
260820,1.9212,2.5957
260821,1.9163,2.6392
260822,1.9123,2.5900
260823,1.9123,2.5779
260824,1.9123,2.5957
260825,1.9163,2.5916
260826,1.9171,2.5925
260827,1.9171,2.5892
260828,1.9123,2.6037
260829,1.9196,2.5876
260830,1.9171,2.5796
260831,1.9171,2.5868
260832,1.9212,2.5860
260833,1.9204,2.5812
260834,1.9139,2.5667
260835,1.9179,2.5836
260836,1.9188,2.5812
260837,1.9147,2.5788
260838,1.9179,2.5481
260839,1.9171,2.5747
260840,1.9196,2.5779
260841,1.9212,2.5755
260842,1.9204,2.5796
260843,1.9292,2.5779
260844,1.9212,2.5788
260845,1.9171,2.5731
260846,1.9123,2.5763
260847,1.9204,2.5707
260848,1.9171,2.5747
260849,1.9188,2.5763
260850,1.9155,2.5771
260851,1.9163,2.5739
260852,1.9171,2.5763
260853,1.9179,2.5755
260854,1.9220,2.5747
260855,1.9220,2.5626
260856,1.9163,2.5747
260857,1.9196,2.5820
260858,1.9171,2.5755
260859,1.9204,2.5755
260860,1.9212,2.5755
260861,1.9260,2.5739
260862,1.9220,2.5739
260863,1.9171,2.5779
260864,1.9212,2.5788
260865,1.9212,2.5618
260866,1.9204,2.5763
260867,1.9204,2.5771
260868,1.9212,2.5779
260869,1.9220,2.5779
260870,1.9204,2.5788
260871,1.9188,2.5771
260872,1.9228,2.5796
260873,1.9212,2.5731
260874,1.9139,2.5812
260875,1.9220,2.5578
260876,1.9204,2.5812
260877,1.9188,2.5844
260878,1.9212,2.5860
260879,1.9252,2.5916
260880,1.9212,2.5900
260881,1.9204,2.5876
260882,1.9212,2.6182
260883,1.9212,2.6021
260884,1.9188,2.5908
260885,1.9204,2.5916
260886,1.9196,2.5941
260887,1.9188,2.5949
260888,1.9212,2.5957
260889,1.9212,2.5892
260890,1.9204,2.6199
260891,1.9212,2.6021
260892,1.9236,2.6182
260893,1.9196,2.6134
260894,1.9196,2.6134
260895,1.9220,2.6053
260896,1.9252,2.6182
260897,1.9204,2.6327
260898,1.9260,2.6295
260899,1.9260,2.6344
260900,1.9252,2.6481
260901,1.9236,2.6408
260902,1.9268,2.6513
260903,1.9204,2.6327
260904,1.9268,2.6771
260905,1.9252,2.6851
260906,1.9260,2.6948
260907,1.9252,2.7037
260908,1.9228,2.7311
260909,1.9300,2.7407
260910,1.9268,2.7931
260911,1.9300,2.7826
260912,1.9252,2.7963
260913,1.9212,2.8108
260914,1.9333,2.8278
260915,1.9292,2.8439
260916,1.9292,2.8552
260917,1.9333,2.8777
260918,1.9260,2.9011
260919,1.9300,2.9156
260920,1.9268,2.9269
260921,1.9341,2.9156
260922,1.9389,2.9575
260923,1.9397,3.0042
260924,1.9421,2.9873
260925,1.9381,2.9986
260926,1.9341,3.0147
260927,1.9389,3.0381
260928,1.9365,3.0405
260929,1.9397,3.0502
260930,1.9397,3.0357
260931,1.9381,3.0768
260932,1.9462,3.0905
260933,1.9333,3.0945
260934,1.9445,3.1332
260935,1.9470,3.1074
260936,1.9397,3.1227
260937,1.9445,3.1364
260938,1.9470,3.1445
260939,1.9429,3.1501
260940,1.9397,3.1590
260941,1.9470,3.1638
260942,1.9478,3.1775
260943,1.9462,3.1799
260944,1.9470,3.1904
260945,1.9502,3.1977
260946,1.9429,3.2065
260947,1.9470,3.2114
260948,1.9462,3.2146
260949,1.9437,3.2259
260950,1.9550,3.2315
260951,1.9470,3.2323
260952,1.9510,3.2412
260953,1.9478,3.2242
260954,1.9494,3.2508
260955,1.9470,3.2363
260956,1.9421,3.2605
260957,1.9470,3.2597
260958,1.9470,3.2662
260959,1.9486,3.2694
260960,1.9445,3.2678
260961,1.9478,3.2662
260962,1.9526,3.2726
260963,1.9502,3.2710
260964,1.9510,3.2662
260965,1.9478,3.2887
260966,1.9518,3.2662
260967,1.9494,3.2750
260968,1.9510,3.2871
260969,1.9542,3.2734
260970,1.9470,3.2895
260971,1.9510,3.3000
260972,1.9453,3.3000
260973,1.9445,3.3000
260974,1.9478,3.3000
260975,1.9421,3.3000
260976,1.9470,3.3000
260977,1.9413,3.3000
260978,1.9413,3.3000
260979,1.9445,3.3000
260980,1.9526,3.3000
260981,1.9445,3.3000
260982,1.9470,3.3000
260983,1.9478,3.3000
260984,1.9445,3.3000
260985,1.9470,3.3000
260986,1.9470,3.3000
260987,1.9470,3.3000
260988,1.9429,3.3000
260989,1.9462,3.3000
260990,1.9445,3.3000
260991,1.9470,3.3000
260992,1.9429,3.3000
260993,1.9470,3.3000
260994,1.9421,3.3000
260995,1.9429,3.3000
260996,1.9413,3.3000
260997,1.9437,3.3000
260998,1.9389,3.3000
260999,1.9453,3.3000
261000,1.9413,3.3000
261001,1.9349,3.3000
261002,1.9429,3.3000
261003,1.9453,3.3000
261004,1.9470,3.3000
261005,1.9453,3.3000
261006,1.9429,3.3000
261007,1.9429,3.3000
261008,1.9470,3.3000
261009,1.9325,3.3000
261010,1.9381,3.3000
261011,1.9445,3.3000
261012,1.9437,3.3000
261013,1.9365,3.3000
261014,1.9397,3.3000
261015,1.9445,3.3000
261016,1.9397,3.3000
261017,1.9462,3.3000
261018,1.9421,3.3000
261019,1.9381,3.3000
261020,1.9325,3.3000
261021,1.9316,3.3000
261022,1.9357,3.3000
261023,1.9341,3.3000
261024,1.9397,3.3000
261025,1.9357,3.3000
261026,1.9365,3.3000
261027,1.9413,3.3000
261028,1.9333,3.3000
261029,1.9349,3.3000
261030,1.9421,3.3000
261031,1.9316,3.3000
261032,1.9268,3.3000
261033,1.9389,3.3000
261034,1.9325,3.3000
261035,1.9284,3.3000
261036,1.9333,3.3000
261037,1.9300,3.3000
261038,1.9381,3.3000
261039,1.9349,3.3000
261040,1.9349,3.3000
261041,1.9397,3.3000
261042,1.9373,3.3000
261043,1.9316,3.3000
261044,1.9341,3.3000
261045,1.9333,3.3000
261046,1.9300,3.3000
261047,1.9292,3.3000
261048,1.9252,3.3000
261049,1.9316,3.3000
261050,1.9300,3.3000
261051,1.9349,3.3000
261052,1.9333,3.3000
261053,1.9316,3.3000
261054,1.9260,3.3000
261055,1.9268,3.3000
261056,1.9316,3.3000
261057,1.9292,3.3000
261058,1.9292,3.3000
261059,1.9268,3.3000
261060,1.9220,3.3000
261061,1.9260,3.3000
261062,1.9228,3.3000
261063,1.9236,3.3000
261064,1.9212,3.3000
261065,1.9268,3.3000
261066,1.9212,3.3000
261067,1.9204,3.3000
261068,1.9236,3.3000
261069,1.9308,3.3000
261070,1.9212,3.3000
261071,1.9236,3.3000
261072,1.9212,3.3000
261073,1.9220,3.3000
261074,1.9228,3.3000
261075,1.9212,3.3000
261076,1.9204,3.3000
261077,1.9196,3.3000
261078,1.9228,3.3000
261079,1.9220,3.3000
261080,1.9212,3.3000
261081,1.9163,3.3000
261082,1.9179,3.3000
261083,1.9196,3.3000
261084,1.9212,3.3000
261085,1.9188,3.3000
261086,1.9131,3.3000
261087,1.9196,3.3000
261088,1.9099,3.3000
261089,1.9155,3.3000
261090,1.9163,3.3000
261091,1.9155,3.3000
261092,1.9083,3.3000
261093,1.9139,3.3000
261094,1.9115,3.3000
261095,1.9067,3.3000
261096,1.9083,3.3000
261097,1.9139,3.3000
261098,1.9083,3.3000
261099,1.9091,3.3000
261100,1.9083,3.3000
261101,1.9099,3.3000
261102,1.9115,3.3000
261103,1.9083,3.3000
261104,1.9091,3.3000
261105,1.9010,3.3000
261106,1.9059,3.3000
261107,1.9059,3.3000
261108,1.9067,3.3000
261109,1.9051,3.3000
261110,1.9010,3.3000
261111,1.9010,3.3000
261112,1.8978,3.3000
261113,1.8962,3.3000
261114,1.8978,3.3000
261115,1.8954,3.3000
261116,1.8954,3.3000
261117,1.8986,3.3000
261118,1.9018,3.3000
261119,1.8994,3.3000
261120,1.9026,3.3000
261121,1.8994,3.3000
261122,1.8962,3.3000
261123,1.8954,3.3000
261124,1.8986,3.3000
261125,1.8881,3.3000
261126,1.9002,3.3000
261127,1.8954,3.3000
261128,1.9075,3.3000
261129,1.8986,3.3000
261130,1.8938,3.3000
261131,1.8954,3.3000
261132,1.8954,3.3000
261133,1.8897,3.3000
261134,1.8954,3.3000
261135,1.8954,3.3000
261136,1.9010,3.3000
261137,1.8962,3.3000
261138,1.8954,3.3000
261139,1.8881,3.3000
261140,1.9123,3.3000
261141,1.8930,3.3000
261142,1.8648,3.3000
261143,1.9075,3.3000
261144,1.9155,3.3000
261145,1.8962,3.3000
261146,1.9212,3.3000
261147,1.8954,3.3000
261148,1.8970,3.3000
261149,1.8954,3.3000
261150,1.8946,3.3000
261151,1.8930,3.3000
261152,1.8954,3.3000
261153,1.8905,3.3000
261154,1.8930,3.3000
261155,1.8978,3.3000
261156,1.8962,3.3000
261157,1.8946,3.3000
261158,1.8930,3.3000
261159,1.8970,3.3000
261160,1.8905,3.3000
261161,1.9107,3.3000
261162,1.8914,3.3000
261163,1.8849,3.3000
261164,1.8978,3.3000
261165,1.8954,3.3000
261166,1.8954,3.3000
261167,1.8938,3.3000
261168,1.8849,3.3000
261169,1.8970,3.3000
261170,1.8841,3.3000
261171,1.8914,3.3000
261172,1.8946,3.3000
261173,1.8930,3.3000
261174,1.8954,3.3000
261175,1.8873,3.3000
261176,1.8857,3.3000
261177,1.8954,3.3000
261178,1.8817,3.3000
261179,1.8833,3.3000
261180,1.8881,3.3000
261181,1.8905,3.3000
261182,1.8873,3.3000
261183,1.8897,3.3000
261184,1.8825,3.3000
261185,1.8857,3.3000
261186,1.8849,3.3000
261187,1.8768,3.3000
261188,1.8833,3.3000
261189,1.8897,3.3000
261190,1.8825,3.3000
261191,1.8914,3.3000
261192,1.9002,3.3000
261193,1.9051,3.3000
261194,1.8857,3.3000
261195,1.8785,3.3000
261196,1.8833,3.3000
261197,1.8841,3.3000
261198,1.8696,3.3000
261199,1.8817,3.3000
261200,1.8825,3.3000
261201,1.8801,3.3000
261202,1.8825,3.3000
261203,1.8785,3.3000
261204,1.8849,3.3000
261205,1.8801,3.3000
261206,1.8833,3.3000
261207,1.8817,3.3000
261208,1.8785,3.3000
261209,1.8752,3.3000
261210,1.8704,3.3000
261211,1.8704,3.3000
261212,1.8777,3.3000
261213,1.8728,3.3000
261214,1.8785,3.3000
261215,1.8744,3.3000
261216,1.8704,3.3000
261217,1.8744,3.3000
261218,1.8696,3.3000
261219,1.8752,3.3000
261220,1.8575,3.3000
261221,1.8696,3.3000
261222,1.8712,3.3000
261223,1.8696,3.3000
261224,1.8785,3.3000
261225,1.8696,3.3000
261226,1.8672,3.3000
261227,1.8680,3.3000
261228,1.8736,3.3000
261229,1.8680,3.3000
261230,1.8696,3.3000
261231,1.8688,3.3000
261232,1.8656,3.3000
261233,1.8656,3.3000
261234,1.8696,3.3000
261235,1.8841,3.3000
261236,1.8640,3.3000
261237,1.8648,3.3000
261238,1.8688,3.3000
261239,1.8704,3.3000
261240,1.8752,3.3000
261241,1.8696,3.3000
261242,1.8672,3.3000
261243,1.8696,3.3000
261244,1.8696,3.3000
261245,1.8591,3.3000
261246,1.8623,3.3000
261247,1.8623,3.3000
261248,1.8720,3.3000
261249,1.8696,3.3000
261250,1.8623,3.2960
261251,1.8623,3.2984
261252,1.8648,3.2968
261253,1.8672,3.2927
261254,1.8615,3.2879
261255,1.8607,3.2831
261256,1.8591,3.2766
261257,1.8615,3.2766
261258,1.8591,3.2750
261259,1.8543,3.2645
261260,1.8615,3.2621
261261,1.8591,3.2468
261262,1.8607,3.2404
261263,1.8575,3.2242
261264,1.8527,3.1977
261265,1.8551,3.1759
261266,1.8486,3.1477
261267,1.8543,3.1179
261268,1.8527,3.0840
261269,1.8551,3.0550
261270,1.8543,3.0252
261271,1.8446,2.9970
261272,1.8446,2.9664
261273,1.8438,2.9406
261274,1.8430,2.9164
261275,1.8454,2.8874
261276,1.8438,2.8640
261277,1.8438,2.8390
261278,1.8430,2.8229
261279,1.8414,2.7996
261280,1.8358,2.7826
261281,1.8438,2.7633
261282,1.8358,2.7472
261283,1.8382,2.7311
261284,1.8333,2.7206
261285,1.8301,2.7061
261286,1.8301,2.6900
261287,1.8309,2.6916
261288,1.8285,2.6674
261289,1.8253,2.6553
261290,1.8269,2.6432
261291,1.8277,2.6344
261292,1.8253,2.6231
261293,1.8293,2.6150
261294,1.8269,2.6311
261295,1.8204,2.6182
261296,1.8253,2.5900
261297,1.8221,2.5675
261298,1.8188,2.5707
261299,1.8180,2.5651
261300,1.8204,2.5610
261301,1.8196,2.5473
261302,1.8196,2.5441
261303,1.8180,2.5473
261304,1.8180,2.5312
261305,1.8180,2.5191
261306,1.8188,2.5199
261307,1.8180,2.5143
261308,1.8180,2.5103
261309,1.8180,2.5086
261310,1.8180,2.5054
261311,1.8172,2.4990
261312,1.8180,2.4917
261313,1.8132,2.5014
261314,1.8172,2.5086
261315,1.8164,2.4829
261316,1.8156,2.4740
261317,1.8132,2.4684
261318,1.8180,2.4643
261319,1.8067,2.4643
261320,1.8172,2.4627
261321,1.8221,2.4627
261322,1.8180,2.4579
261323,1.8140,2.4587
261324,1.8180,2.4385
261325,1.8172,2.4498
261326,1.8156,2.4490
261327,1.8180,2.4410
261328,1.8132,2.4393
261329,1.8140,2.4377
261330,1.8180,2.4385
261331,1.8180,2.4369
261332,1.8164,2.4377
261333,1.8164,2.4329
261334,1.8180,2.4329
261335,1.8204,2.4329
261336,1.8196,2.4297
261337,1.8180,2.4289
261338,1.8172,2.4264
261339,1.8188,2.4442
261340,1.8196,2.4224
261341,1.8180,2.4192
261342,1.8172,2.4200
261343,1.8156,2.4200
261344,1.8180,2.4200
261345,1.8172,2.4144
261346,1.8237,2.4136
261347,1.8261,2.4127
261348,1.8253,2.4111
261349,1.8253,2.4136
261350,1.8245,2.4111
261351,1.8188,2.4264
261352,1.8180,2.4136
261353,1.8204,2.4103
261354,1.8180,2.4079
261355,1.8180,2.4095
261356,1.8221,2.4087
261357,1.8221,2.4071
261358,1.8221,2.4063
261359,1.8229,2.4127
261360,1.8229,2.4031
261361,1.8237,2.4055
261362,1.8261,2.4023
261363,1.8156,2.4039
261364,1.8221,2.4039
261365,1.8293,2.3982
261366,1.8301,2.4039
261367,1.8237,2.4055
261368,1.8309,2.4111
261369,1.8269,2.4079
261370,1.8349,2.4023
261371,1.8269,2.4055
261372,1.8237,2.4071
261373,1.8293,2.4160
261374,1.8237,2.4071
261375,1.8269,2.3716
261376,1.8301,2.4071
261377,1.8229,2.4103
261378,1.8269,2.4216
261379,1.8261,2.4079
261380,1.8285,2.3999
261381,1.8269,2.4111
261382,1.8317,2.3990
261383,1.8253,2.4184
261384,1.8358,2.4297
261385,1.8309,2.4289
261386,1.8333,2.4111
261387,1.8269,2.4047
261388,1.8301,2.4136
261389,1.8390,2.4095
261390,1.8293,2.4007
261391,1.8293,2.3837
261392,1.8269,2.3563
261393,1.8293,2.3475
261394,1.8221,2.3201
261395,1.8277,2.3007
261396,1.8253,2.2822
261397,1.8229,2.2862
261398,1.8180,2.2991
261399,1.8253,2.3209
261400,1.8261,2.3128
261401,1.8204,2.3338
261402,1.8229,2.3322
261403,1.8196,2.3136
261404,1.8196,2.3209
261405,1.8269,2.3362
261406,1.8180,2.3185
261407,1.8253,2.3088
261408,1.8301,2.3160
261409,1.8188,2.2782
261410,1.8253,2.2653
261411,1.8204,2.2443
261412,1.8204,2.2306
261413,1.8172,2.2218
261414,1.8156,2.2306
261415,1.8164,2.2395
261416,1.8180,2.2709
261417,1.8140,2.2717
261418,1.8156,2.2774
261419,1.8180,2.2685
261420,1.8140,2.2661
261421,1.8180,2.2693
261422,1.8188,2.2766
261423,1.8180,2.2685
261424,1.8132,2.2572
261425,1.8180,2.2419
261426,1.8180,2.2363
261427,1.8075,2.2161
261428,1.8092,2.2032
261429,1.8043,2.1879
261430,1.8067,2.1927
261431,1.8140,2.2008
261432,1.8059,2.2161
261433,1.8059,2.2322
261434,1.8092,2.2492
261435,1.8156,2.2459
261436,1.8140,2.2395
261437,1.8084,2.2411
261438,1.8075,2.2459
261439,1.8164,2.2516
261440,1.8051,2.2484
261441,1.8140,2.2355
261442,1.8108,2.2274
261443,1.8092,2.2073
261444,1.8124,2.1911
261445,1.8084,2.1710
261446,1.8043,2.1686
261447,1.8067,2.1694
261448,1.8067,2.1774
261449,1.8067,2.2008
261450,1.8059,2.2145
261451,1.8075,2.2306
261452,1.8100,2.2314
261453,1.8140,2.2201
261454,1.8172,2.2226
261455,1.8156,2.2338
261456,1.8124,2.2395
261457,1.8132,2.2193
261458,1.8124,2.2201
261459,1.8100,2.2056
261460,1.8051,2.1879
261461,1.8075,2.1742
261462,1.8067,2.1541
261463,1.8059,2.1533
261464,1.8067,2.1589
261465,1.8059,2.1815
261466,1.8108,2.1968
261467,1.8100,2.2105
261468,1.8067,2.2226
261469,1.8164,2.2193
261470,1.8075,2.2137
261471,1.8108,2.2234
261472,1.8140,2.2306
261473,1.8164,2.2290
261474,1.8132,2.2201
261475,1.8100,2.2048
261476,1.8124,2.1944
261477,1.8043,2.1774
261478,1.8051,2.1533
261479,1.8051,2.1444
261480,1.8092,2.1420
261481,1.8108,2.1613
261482,1.8075,2.1653
261483,1.8027,2.1936
261484,1.8051,2.2105
261485,1.8124,2.2153
261486,1.8075,2.2129
261487,1.8084,2.2105
261488,1.8092,2.2201
261489,1.8156,2.2218
261490,1.8075,2.2218
261491,1.8140,2.2129
261492,1.8124,2.1976
261493,1.8084,2.1823
261494,1.8075,2.1662
261495,1.8035,2.1533
261496,1.8140,2.1404
261497,1.8043,2.1428
261498,1.8059,2.1492
261499,1.8092,2.1742
261500,1.8011,2.1952
261501,1.8092,2.2064
261502,1.8140,2.2048
261503,1.8092,2.2040
261504,1.8108,2.2024
261505,1.8051,2.2185
261506,1.8140,2.2153
261507,1.8108,2.2064
261508,1.7987,2.1976
261509,1.8092,2.1863
261510,1.8075,2.1662
261511,1.8075,2.1533
261512,1.8019,2.1315
261513,1.7971,2.1291
261514,1.8035,2.1404
261515,1.8019,2.1533
261516,1.8035,2.1750
261517,1.8035,2.1936
261518,1.8051,2.1992
261519,1.8100,2.1944
261520,1.8132,2.2000
261521,1.8059,2.2048
261522,1.8043,2.2153
261523,1.8084,2.2081
261524,1.8100,2.2048
261525,1.8043,2.1936
261526,1.8043,2.1790
261527,1.8027,2.1637
261528,1.8011,2.1460
261529,1.8019,2.1275
261530,1.7963,2.1275
261531,1.7947,2.1388
261532,1.8027,2.1533
261533,1.8027,2.1782
261534,1.8027,2.1960
261535,1.8035,2.1968
261536,1.8035,2.1968
261537,1.8051,2.1927
261538,1.8059,2.2048
261539,1.8059,2.2048
261540,1.8051,2.2064
261541,1.8100,2.1895
261542,1.8092,2.1799
261543,1.8051,2.1678
261544,1.8043,2.1492
261545,1.8051,2.1428
261546,1.8011,2.1283
261547,1.7979,2.1170
261548,1.7947,2.1379
261549,1.7995,2.1549
261550,1.8092,2.1710
261551,1.8027,2.1903
261552,1.8043,2.1911
261553,1.8035,2.1903
261554,1.8051,2.1847
261555,1.8075,2.1944
261556,1.8075,2.2048
261557,1.8092,2.1976
261558,1.8075,2.1871
261559,1.8059,2.1742
261560,1.8027,2.1541
261561,1.8003,2.1420
261562,1.8011,2.1210
261563,1.7963,2.1162
261564,1.7971,2.1226
261565,1.7979,2.1412
261566,1.7995,2.1637
261567,1.7995,2.1823
261568,1.8003,2.1879
261569,1.8043,2.1879
261570,1.8075,2.1847
261571,1.7971,2.1927
261572,1.8019,2.2040
261573,1.8067,2.1992
261574,1.8043,2.1968
261575,1.8084,2.1863
261576,1.8019,2.1678
261577,1.8027,2.1525
261578,1.7971,2.1420
261579,1.8003,2.1275
261580,1.7971,2.1251
261581,1.7930,2.1299
261582,1.7979,2.1508
261583,1.7987,2.1750
261584,1.8019,2.1895
261585,1.8011,2.1936
261586,1.8059,2.1847
261587,1.7979,2.1871
261588,1.8027,2.2032
261589,1.8035,2.2064
261590,1.8051,2.2056
261591,1.8059,2.1944
261592,1.8027,2.1847
261593,1.8035,2.1718
261594,1.8003,2.1541
261595,1.7963,2.1371
261596,1.7995,2.1275
261597,1.7995,2.1275
261598,1.7947,2.1420
261599,1.7955,2.1581
261600,1.7979,2.1710
261601,1.8027,2.1863
261602,1.8003,2.1944
261603,1.8011,2.1903
261604,1.7995,2.1936
261605,1.8043,2.2024
261606,1.8059,2.2097
261607,1.8075,2.2048
261608,1.8027,2.1960
261609,1.8027,2.1790
261610,1.8003,2.1662
261611,1.8003,2.1476
261612,1.8035,2.1331
261613,1.7995,2.1259
261614,1.7947,2.1299
261615,1.8011,2.1396
261616,1.7979,2.1557
261617,1.7979,2.1790
261618,1.8035,2.1911
261619,1.7995,2.1936
261620,1.8043,2.1960
261621,1.8003,2.2008
261622,1.8051,2.2137
261623,1.8035,2.2218
261624,1.8084,2.2177
261625,1.8051,2.2121
261626,1.8108,2.2000
261627,1.8084,2.1831
261628,1.8043,2.1670
261629,1.8051,2.1484
261630,1.8011,2.1428
261631,1.8019,2.1484
261632,1.8059,2.1629
261633,1.8035,2.1790
261634,1.8067,2.1976
261635,1.8100,2.2129
261636,1.8075,2.2129
261637,1.8124,2.2177
261638,1.8148,2.2266
261639,1.8140,2.2419
261640,1.8140,2.2459
261641,1.8172,2.2443
261642,1.8180,2.2395
261643,1.8164,2.2193
261644,1.8156,2.2040
261645,1.8180,2.1839
261646,1.8132,2.1718
261647,1.8124,2.1718
261648,1.8092,2.1790
261649,1.8156,2.1944
261650,1.8132,2.2121
261651,1.8180,2.2306
261652,1.8180,2.2395
261653,1.8180,2.2419
261654,1.8204,2.2467
261655,1.8221,2.2564
261656,1.8196,2.2701
261657,1.8221,2.2749
261658,1.8253,2.2653
261659,1.8229,2.2524
261660,1.8229,2.2347
261661,1.8237,2.2193
261662,1.8253,2.2016
261663,1.8188,2.1879
261664,1.8221,2.1871
261665,1.8204,2.2048
261666,1.8261,2.2177
261667,1.8221,2.2322
261668,1.8204,2.2564
261669,1.8237,2.2588
261670,1.8293,2.2564
261671,1.8285,2.2621
261672,1.8269,2.2733
261673,1.8301,2.2814
261674,1.8301,2.2749
261675,1.8261,2.2701
261676,1.8317,2.2556
261677,1.8285,2.2322
261678,1.8285,2.2282
261679,1.8277,2.2048
261680,1.8285,2.2000
261681,1.8285,2.2048
261682,1.8229,2.2129
261683,1.8285,2.2290
261684,1.8285,2.2524
261685,1.8293,2.2564
261686,1.8269,2.2548
261687,1.8301,2.2572
261688,1.8349,2.2564
261689,1.8317,2.2749
261690,1.8349,2.2774
261691,1.8382,2.2669
261692,1.8333,2.2604
261693,1.8317,2.2451
261694,1.8349,2.2298
261695,1.8349,2.2105
261696,1.8317,2.2048
261697,1.8253,2.1976
261698,1.8285,2.2081
261699,1.8285,2.2266
261700,1.8285,2.2395
261701,1.8301,2.2556
261702,1.8269,2.2572
261703,1.8325,2.2564
261704,1.8341,2.2564
261705,1.8325,2.2685
261706,1.8366,2.2766
261707,1.8333,2.2774
261708,1.8358,2.2645
261709,1.8358,2.2516
261710,1.8309,2.2395
261711,1.8349,2.2201
261712,1.8301,2.2040
261713,1.8301,2.1911
261714,1.8317,2.1976
261715,1.8285,2.2081
261716,1.8245,2.2218
261717,1.8309,2.2395
261718,1.8293,2.2564
261719,1.8333,2.2572
261720,1.8317,2.2572
261721,1.8285,2.2604
261722,1.8325,2.2733
261723,1.8285,2.2798
261724,1.8349,2.2717
261725,1.8333,2.2604
261726,1.8333,2.2492
261727,1.8325,2.2314
261728,1.8293,2.2161
261729,1.8301,2.1968
261730,1.8229,2.1960
261731,1.8293,2.2024
261732,1.8309,2.2153
261733,1.8317,2.2290
261734,1.8293,2.2435
261735,1.8317,2.2580
261736,1.8349,2.2621
261737,1.8317,2.2653
261738,1.8333,2.2709
261739,1.8366,2.2822
261740,1.8382,2.2838
261741,1.8414,2.2822
261742,1.8422,2.2693
261743,1.8398,2.2564
261744,1.8382,2.2427
261745,1.8333,2.2274
261746,1.8333,2.2145
261747,1.8309,2.2169
261748,1.8293,2.2201
261749,1.8317,2.2330
261750,1.8317,2.2484
261751,1.8325,2.2677
261752,1.8349,2.2766
261753,1.8414,2.2806
261754,1.8430,2.2814
261755,1.8366,2.2927
261756,1.8422,2.3080
261757,1.8430,2.3096
261758,1.8438,2.3064
261759,1.8438,2.2911
261760,1.8446,2.2749
261761,1.8406,2.2604
261762,1.8438,2.2451
261763,1.8438,2.2411
261764,1.8438,2.2435
261765,1.8382,2.2540
261766,1.8406,2.2653
261767,1.8430,2.2693
261768,1.8438,2.2862
261769,1.8438,2.3040
261770,1.8438,2.3080
261771,1.8446,2.3168
261772,1.8462,2.3314
261773,1.8486,2.3451
261774,1.8535,2.3459
261775,1.8527,2.3386
261776,1.8551,2.3322
261777,1.8543,2.3160
261778,1.8559,2.2991
261779,1.8519,2.2830
261780,1.8519,2.2911
261781,1.8575,2.2919
261782,1.8559,2.2999
261783,1.8567,2.3080
261784,1.8575,2.3136
261785,1.8583,2.3265
261786,1.8607,2.3418
261787,1.8623,2.3596
261788,1.8623,2.3620
261789,1.8640,2.3974
261790,1.8615,2.4007
261791,1.8623,2.4111
261792,1.8623,2.4071
261793,1.8680,2.3999
261794,1.8696,2.3853
261795,1.8672,2.3684
261796,1.8696,2.3612
261797,1.8672,2.3596
261798,1.8688,2.3676
261799,1.8672,2.4111
261800,1.8688,2.4111
261801,1.8656,2.3853
261802,1.8680,2.4305
261803,1.8664,2.3765
261804,1.8688,2.4152
261805,1.8712,2.4248
261806,1.8696,2.4321
261807,1.8680,2.4498
261808,1.8696,2.4547
261809,1.8736,2.4579
261810,1.8680,2.4498
261811,1.8712,2.4305
261812,1.8696,2.4232
261813,1.8696,2.4216
261814,1.8672,2.4103
261815,1.8728,2.4168
261816,1.8736,2.4168
261817,1.8696,2.4256
261818,1.8712,2.4264
261819,1.8704,2.4321
261820,1.8688,2.4385
261821,1.8688,2.4514
261822,1.8680,2.4619
261823,1.8696,2.4627
261824,1.8696,2.4885
261825,1.8680,2.4861
261826,1.8720,2.4748
261827,1.8712,2.4635
261828,1.8704,2.4482
261829,1.8720,2.4401
261830,1.8720,2.4442
261831,1.8696,2.4393
261832,1.8728,2.4474
261833,1.8720,2.4474
261834,1.8696,2.4490
261835,1.8696,2.4522
261836,1.8704,2.4555
261837,1.8696,2.4482
261838,1.8720,2.4732
261839,1.8696,2.4732
261840,1.8696,2.4974
261841,1.8720,2.4958
261842,1.8696,2.5014
261843,1.8696,2.4941
261844,1.8720,2.4748
261845,1.8704,2.4611
261846,1.8696,2.4603
261847,1.8728,2.4579
261848,1.8704,2.4587
261849,1.8696,2.4627
261850,1.8688,2.4587
261851,1.8728,2.4643
261852,1.8752,2.4547
261853,1.8696,2.4748
261854,1.8712,2.4748
261855,1.8696,2.4885
261856,1.8720,2.4885
261857,1.8696,2.4958
261858,1.8712,2.5086
261859,1.8728,2.5054
261860,1.8720,2.4990
261861,1.8712,2.4845
261862,1.8696,2.4684
261863,1.8736,2.4651
261864,1.8688,2.4885
261865,1.8704,2.4893
261866,1.8712,2.4627
261867,1.8752,2.4837
261868,1.8696,2.4748
261869,1.8696,2.4748
261870,1.8825,2.4861
261871,1.8704,2.4885
261872,1.8696,2.4966
261873,1.8696,2.4990
261874,1.8696,2.5062
261875,1.8680,2.5159
261876,1.8720,2.5143
261877,1.8688,2.4982
261878,1.8688,2.4829
261879,1.8744,2.4627
261880,1.8704,2.4716
261881,1.8696,2.4708
261882,1.8704,2.4748
261883,1.8696,2.4748
261884,1.8712,2.4506
261885,1.8696,2.4555
261886,1.8696,2.4966
261887,1.8704,2.4925
261888,1.8696,2.5022
261889,1.8696,2.5022
261890,1.8712,2.5046
261891,1.8704,2.5151
261892,1.8720,2.5232
261893,1.8720,2.5143
