time_ms,ch1_v,ch2_v
285538,1.8011,2.4579
285539,1.8011,2.4498
285540,1.7947,2.4538
285541,1.7971,2.4514
285542,1.7979,2.4538
285543,1.7963,2.4498
285544,1.7995,2.4418
285545,1.7922,2.4474
285546,1.7979,2.4482
285547,1.7971,2.4498
285548,1.8003,2.4506
285549,1.8003,2.4530
285550,1.7938,2.4611
285551,1.8011,2.4627
285552,1.8051,2.4627
285553,1.8011,2.4627
285554,1.7971,2.4627
285555,1.8003,2.4603
285556,1.7963,2.4603
285557,1.8011,2.4571
285558,1.8003,2.4547
285559,1.7979,2.4530
285560,1.8003,2.4530
285561,1.7995,2.4538
285562,1.8003,2.4538
285563,1.7979,2.4522
285564,1.7963,2.4522
285565,1.8035,2.4587
285566,1.8035,2.4611
285567,1.8035,2.4651
285568,1.8027,2.4547
285569,1.8019,2.4635
285570,1.7971,2.4635
285571,1.8003,2.4635
285572,1.8003,2.4635
285573,1.8011,2.4635
285574,1.8027,2.4700
285575,1.7938,2.4619
285576,1.7995,2.4619
285577,1.7971,2.4611
285578,1.7979,2.4369
285579,1.7979,2.4571
285580,1.8003,2.4748
285581,1.8003,2.4627
285582,1.8003,2.4627
285583,1.8011,2.4651
285584,1.8035,2.4716
285585,1.7971,2.4740
285586,1.8027,2.4740
285587,1.8035,2.4732
285588,1.8019,2.4675
285589,1.8035,2.4684
285590,1.7922,2.4675
285591,1.8075,2.4716
285592,1.8027,2.4651
285593,1.8035,2.4651
285594,1.8027,2.4643
285595,1.8035,2.4627
285596,1.8027,2.4627
285597,1.8011,2.4627
285598,1.8027,2.4635
285599,1.8011,2.4716
285600,1.8019,2.4748
285601,1.8035,2.4845
285602,1.8035,2.4748
285603,1.8059,2.4845
285604,1.8043,2.4837
285605,1.7979,2.4845
285606,1.8027,2.4748
285607,1.8043,2.4748
285608,1.8027,2.4748
285609,1.8051,2.4716
285610,1.8027,2.4587
285611,1.8043,2.4675
285612,1.8003,2.4716
285613,1.7995,2.4675
285614,1.7995,2.4700
285615,1.8051,2.4853
285616,1.8043,2.4837
285617,1.8035,2.4901
285618,1.8019,2.4925
285619,1.8051,2.5006
285620,1.8051,2.4925
285621,1.8059,2.4885
285622,1.8011,2.4917
285623,1.8043,2.4925
285624,1.8027,2.4877
285625,1.8043,2.4877
285626,1.8027,2.4941
285627,1.8051,2.4869
285628,1.8051,2.4829
285629,1.8035,2.4837
285630,1.8051,2.4877
285631,1.8051,2.4724
285632,1.8059,2.4893
285633,1.8059,2.4990
285634,1.8043,2.5062
285635,1.8084,2.5086
285636,1.8059,2.5095
285637,1.8067,2.5095
285638,1.8084,2.5046
285639,1.8051,2.5038
285640,1.8092,2.5014
285641,1.8075,2.4974
285642,1.8084,2.5006
285643,1.8027,2.4966
285644,1.8051,2.4933
285645,1.8067,2.4909
285646,1.8067,2.4917
285647,1.8051,2.4966
285648,1.8075,2.5006
285649,1.8051,2.5119
285650,1.8100,2.5183
285651,1.8051,2.5151
285652,1.8108,2.5215
285653,1.8084,2.5199
285654,1.8108,2.5167
285655,1.8084,2.5296
285656,1.8140,2.5143
285657,1.8084,2.5151
285658,1.8124,2.5151
285659,1.8075,2.5143
285660,1.8059,2.5119
285661,1.8075,2.5119
285662,1.8092,2.5070
285663,1.7995,2.5078
285664,1.8084,2.5127
285665,1.8092,2.5143
285666,1.8148,2.5256
285667,1.8140,2.5312
285668,1.8108,2.5344
285669,1.8108,2.5385
285670,1.8067,2.5360
285671,1.8108,2.5352
285672,1.8067,2.5296
285673,1.8140,2.5312
285674,1.8156,2.5280
285675,1.8108,2.5441
285676,1.8092,2.5232
285677,1.8140,2.5175
285678,1.8140,2.5183
285679,1.8140,2.5248
285680,1.8124,2.5167
285681,1.8100,2.5232
285682,1.8140,2.5385
285683,1.8092,2.5441
285684,1.8140,2.5546
285685,1.8180,2.5554
285686,1.8180,2.5570
285687,1.8172,2.5578
285688,1.8180,2.5522
285689,1.8132,2.5489
285690,1.8124,2.5473
285691,1.8188,2.5473
285692,1.8180,2.5401
285693,1.8164,2.5417
285694,1.8180,2.5401
285695,1.8180,2.5360
285696,1.8237,2.5393
285697,1.8172,2.5433
285698,1.8156,2.5497
285699,1.8180,2.5618
285700,1.8204,2.5715
285701,1.8180,2.5788
285702,1.8180,2.5796
285703,1.8196,2.5771
285704,1.8229,2.5771
285705,1.8229,2.5763
285706,1.8204,2.5715
285707,1.8196,2.5699
285708,1.8221,2.5707
285709,1.8196,2.5659
285710,1.8180,2.5667
285711,1.8188,2.5659
285712,1.8196,2.5659
285713,1.8196,2.5675
285714,1.8188,2.5739
285715,1.8221,2.5844
285716,1.8237,2.5957
285717,1.8293,2.6037
285718,1.8253,2.6142
285719,1.8261,2.6102
285720,1.8269,2.6126
285721,1.8309,2.6102
285722,1.8317,2.6070
285723,1.8309,2.6005
285724,1.8317,2.6037
285725,1.8285,2.5973
285726,1.8261,2.6021
285727,1.8301,2.6045
285728,1.8325,2.5989
285729,1.8269,2.5804
285730,1.8333,2.6053
285731,1.8301,2.6182
285732,1.8317,2.6174
285733,1.8317,2.6094
285734,1.8398,2.6053
285735,1.8519,2.6053
285736,1.8438,2.6053
285737,1.8454,2.6070
285738,1.8495,2.6029
285739,1.8478,2.6037
285740,1.8462,2.6037
285741,1.8478,2.6078
285742,1.8478,2.6150
285743,1.8495,2.6134
285744,1.8527,2.6118
285745,1.8575,2.6215
285746,1.8527,2.6311
285747,1.8575,2.6384
285748,1.8551,2.6231
285749,1.8535,2.5997
285750,1.8527,2.5900
285751,1.8575,2.5554
285752,1.8575,2.5812
285753,1.8575,2.5828
285754,1.8615,2.5876
285755,1.8720,2.5916
285756,1.8607,2.5908
285757,1.8583,2.5973
285758,1.8559,2.6094
285759,1.8640,2.6182
285760,1.8583,2.6287
285761,1.8583,2.6352
285762,1.8656,2.6416
285763,1.8656,2.6360
285764,1.8656,2.6190
285765,1.8696,2.5828
285766,1.8696,2.5586
285767,1.8696,2.5441
285768,1.8688,2.5401
285769,1.8696,2.5401
285770,1.8696,2.5473
285771,1.8696,2.5538
285772,1.8696,2.5715
285773,1.8664,2.5739
285774,1.8704,2.5675
285775,1.8736,2.5651
285776,1.8696,2.5651
285777,1.8752,2.5699
285778,1.8744,2.5602
285779,1.8712,2.5497
285780,1.8704,2.5272
285781,1.8696,2.5054
285782,1.8680,2.4748
285783,1.8712,2.4506
285784,1.8607,2.4321
285785,1.8640,2.4313
285786,1.8615,2.4426
285787,1.8591,2.4393
285788,1.8615,2.4555
285789,1.8704,2.4635
285790,1.8575,2.4619
285791,1.8615,2.4426
285792,1.8559,2.4385
285793,1.8591,2.4482
285794,1.8567,2.4385
285795,1.8567,2.4321
285796,1.8527,2.4111
285797,1.8519,2.3870
285798,1.8454,2.3733
285799,1.8462,2.3555
285800,1.8422,2.3297
285801,1.8414,2.3160
285802,1.8229,2.3128
285803,1.8366,2.3281
285804,1.8382,2.3338
285805,1.8317,2.3523
285806,1.8333,2.3596
285807,1.8414,2.3507
285808,1.8317,2.3394
285809,1.8309,2.3152
285810,1.8333,2.3394
285811,1.8382,2.3305
285812,1.8333,2.3233
285813,1.8317,2.3096
285814,1.8333,2.3080
285815,1.8269,2.2685
285816,1.8221,2.2564
285817,1.8212,2.2387
285818,1.8180,2.2306
285819,1.8188,2.2330
285820,1.8180,2.2467
285821,1.8237,2.2693
285822,1.8196,2.2862
285823,1.8221,2.2854
285824,1.8237,2.2822
285825,1.8180,2.2701
285826,1.8180,2.2749
285827,1.8196,2.2806
285828,1.8253,2.2572
285829,1.8188,2.2564
285830,1.8180,2.2459
285831,1.8172,2.2314
285832,1.8156,2.2201
285833,1.8108,2.1968
285834,1.8132,2.1831
285835,1.8108,2.1871
285836,1.8132,2.2048
285837,1.8108,2.2322
285838,1.8164,2.2330
285839,1.8164,2.2371
285840,1.8108,2.2524
285841,1.8132,2.2411
285842,1.8148,2.2387
285843,1.8132,2.2459
285844,1.8180,2.2492
285845,1.8124,2.2347
285846,1.8164,2.2306
285847,1.8092,2.2089
285848,1.8100,2.1976
285849,1.8124,2.1839
285850,1.8108,2.1613
285851,1.8100,2.1516
285852,1.7979,2.1581
285853,1.8043,2.1766
285854,1.8092,2.1911
285855,1.8051,2.2137
285856,1.8084,2.2193
285857,1.8084,2.2185
285858,1.8075,2.2137
285859,1.8140,2.2177
285860,1.8124,2.2193
285861,1.8051,2.2177
285862,1.8075,2.2040
285863,1.8100,2.2000
285864,1.8108,2.1790
285865,1.8108,2.1613
285866,1.8051,2.1484
285867,1.8051,2.1283
285868,1.8084,2.1299
285869,1.8027,2.1379
285870,1.8059,2.1525
285871,1.8051,2.1734
285872,1.8051,2.1903
285873,1.8100,2.1984
285874,1.8067,2.1976
285875,1.8140,2.1927
285876,1.8051,2.2097
285877,1.8108,2.2048
285878,1.8100,2.2016
285879,1.8124,2.1936
285880,1.8092,2.1790
285881,1.8084,2.1645
285882,1.8067,2.1492
285883,1.8011,2.1275
285884,1.7995,2.1194
285885,1.8019,2.1202
285886,1.8027,2.1283
285887,1.8003,2.1565
285888,1.8059,2.1774
285889,1.8100,2.1960
285890,1.8108,2.1992
285891,1.8100,2.1903
285892,1.7882,2.1911
285893,1.8003,2.1960
285894,1.8075,2.2048
285895,1.8075,2.1968
285896,1.8092,2.1863
285897,1.8059,2.1710
285898,1.8051,2.1541
285899,1.8043,2.1388
285900,1.8035,2.1275
285901,1.7963,2.1218
285902,1.8035,2.1275
285903,1.7979,2.1355
285904,1.8027,2.1831
285905,1.8011,2.1863
285906,1.8027,2.1976
285907,1.8011,2.2008
285908,1.8043,2.1952
285909,1.8100,2.1976
285910,1.8108,2.2048
285911,1.8075,2.1815
285912,1.8003,2.1960
285913,1.8084,2.1807
285914,1.8035,2.1653
285915,1.8003,2.1565
285916,1.7979,2.1388
285917,1.7987,2.1251
285918,1.7979,2.1234
285919,1.8011,2.1331
285920,1.7971,2.1533
285921,1.8156,2.1782
285922,1.8019,2.1927
285923,1.8027,2.2048
285924,1.8059,2.2008
285925,1.8011,2.2000
285926,1.8092,2.2024
285927,1.8092,2.2073
285928,1.8011,2.1944
285929,1.8059,2.1960
285930,1.8027,2.1871
285931,1.8051,2.1621
285932,1.8003,2.1452
285933,1.7834,2.1291
285934,1.7971,2.1138
285935,1.7971,2.1234
285936,1.8035,2.1396
285937,1.7963,2.1565
285938,1.8035,2.1790
285939,1.7979,2.1863
285940,1.7995,2.2040
285941,1.8003,2.1742
285942,1.8027,2.1944
285943,1.7979,2.1936
285944,1.8043,2.2089
285945,1.8035,2.2048
285946,1.8051,2.1911
285947,1.8043,2.1790
285948,1.8051,2.1573
285949,1.7930,2.1621
285950,1.7963,2.1307
285951,1.7922,2.1226
285952,1.7995,2.1283
285953,1.7995,2.1379
285954,1.7995,2.1670
285955,1.8019,2.1944
285956,1.7995,2.2040
285957,1.7955,2.2016
285958,1.8051,2.1952
285959,1.8043,2.2040
285960,1.8035,2.2073
285961,1.7979,2.2073
285962,1.8051,2.2048
285963,1.8019,2.1871
285964,1.8011,2.1750
285965,1.7979,2.1621
285966,1.7930,2.1371
285967,1.7922,2.1315
285968,1.8003,2.1371
285969,1.7922,2.1355
285970,1.7930,2.1533
285971,1.7971,2.1790
285972,1.8011,2.1968
285973,1.7979,2.2032
285974,1.7979,2.2040
285975,1.8003,2.1968
285976,1.8019,2.2056
285977,1.8011,2.2129
285978,1.7995,2.2048
285979,1.8027,2.2000
285980,1.8035,2.1815
285981,1.8043,2.1734
285982,1.7995,2.1557
285983,1.7971,2.1371
285984,1.7971,2.1275
285985,1.7947,2.1339
285986,1.7995,2.1404
285987,1.8027,2.1645
285988,1.7995,2.1879
285989,1.7947,2.2064
285990,1.7995,2.2105
285991,1.8027,2.2064
285992,1.7979,2.2048
285993,1.8011,2.2137
285994,1.7995,2.2177
285995,1.8043,2.2056
285996,1.8043,2.2234
285997,1.8035,2.1879
285998,1.8019,2.1645
285999,1.7979,2.1533
286000,1.7963,2.1379
286001,1.7930,2.1379
286002,1.7947,2.1452
286003,1.7979,2.1533
286004,1.7979,2.1790
286005,1.8011,2.2016
286006,1.7995,2.2137
286007,1.8003,2.2185
286008,1.8011,2.2097
286009,1.8019,2.2169
286010,1.7979,2.2226
286011,1.8051,2.2266
286012,1.7979,2.2226
286013,1.8035,2.2040
286014,1.8043,2.1807
286015,1.8027,2.1742
286016,1.8035,2.1549
286017,1.8011,2.1492
286018,1.7922,2.1452
286019,1.7963,2.1557
286020,1.8035,2.1782
286021,1.8035,2.1960
286022,1.7955,2.2161
286023,1.8027,2.2282
286024,1.8011,2.2201
286025,1.8011,2.2169
286026,1.8035,2.2153
286027,1.8035,2.2379
286028,1.8051,2.2314
286029,1.8035,2.2427
286030,1.7995,2.2097
286031,1.8011,2.2032
286032,1.8011,2.1944
286033,1.7979,2.1662
286034,1.7995,2.1662
286035,1.8003,2.1670
286036,1.8051,2.1847
286037,1.8003,2.1952
286038,1.8035,2.2169
286039,1.7995,2.2330
286040,1.8011,2.2395
286041,1.8051,2.2379
286042,1.8051,2.2395
286043,1.8027,2.2508
286044,1.8051,2.2572
286045,1.8059,2.2564
286046,1.8075,2.2475
286047,1.8108,2.2395
286048,1.8059,2.2201
286049,1.8059,2.2024
286050,1.8011,2.1919
286051,1.8011,2.1919
286052,1.7995,2.2016
286053,1.8027,2.2048
286054,1.8051,2.2234
286055,1.8051,2.2395
286056,1.8051,2.2564
286057,1.8043,2.2548
286058,1.8075,2.2516
286059,1.8059,2.2524
286060,1.8100,2.2661
286061,1.8108,2.2741
286062,1.8172,2.2717
286063,1.8156,2.2572
286064,1.8075,2.2532
286065,1.8084,2.2322
286066,1.8108,2.2129
286067,1.8051,2.2048
286068,1.8051,2.2073
286069,1.8051,2.2419
286070,1.8075,2.2306
286071,1.8092,2.2475
286072,1.8172,2.2637
286073,1.8075,2.2701
286074,1.8108,2.2774
286075,1.8156,2.2564
286076,1.8108,2.2685
286077,1.8132,2.2782
286078,1.8116,2.3032
286079,1.8172,2.3193
286080,1.8164,2.3338
286081,1.8180,2.3451
286082,1.8221,2.3579
286083,1.8221,2.3636
286084,1.8285,2.3684
286085,1.8285,2.3797
286086,1.8293,2.3813
286087,1.8309,2.3845
286088,1.8325,2.3853
286089,1.8301,2.3894
286090,1.8333,2.3878
286091,1.8317,2.3942
286092,1.8309,2.3966
286093,1.8075,2.3974
286094,1.8333,2.3990
286095,1.8341,2.4039
286096,1.8358,2.4031
286097,1.8382,2.4111
286098,1.8414,2.4111
286099,1.8390,2.4119
286100,1.8285,2.4160
286101,1.8390,2.4192
286102,1.8382,2.4200
286103,1.8390,2.4184
286104,1.8374,2.4216
286105,1.8349,2.4216
286106,1.8317,2.4224
286107,1.8382,2.4232
286108,1.8358,2.4208
286109,1.8390,2.4377
286110,1.8333,2.4297
286111,1.8390,2.4321
286112,1.8414,2.4321
286113,1.8390,2.4345
286114,1.8325,2.4297
286115,1.8301,2.4369
286116,1.8317,2.4345
286117,1.8382,2.4377
286118,1.8325,2.4482
286119,1.8366,2.4369
286120,1.8358,2.4369
286121,1.8382,2.4393
286122,1.8341,2.4410
286123,1.8309,2.4393
286124,1.8358,2.4426
286125,1.8382,2.4442
286126,1.8333,2.4442
286127,1.8269,2.4410
286128,1.8317,2.4458
286129,1.8390,2.4619
286130,1.8358,2.4490
286131,1.8269,2.4482
286132,1.8293,2.4490
286133,1.8325,2.4538
286134,1.8309,2.4450
286135,1.8237,2.4748
286136,1.8325,2.4482
286137,1.8317,2.4522
286138,1.8237,2.4490
286139,1.8269,2.4514
286140,1.8333,2.4490
286141,1.8382,2.4498
286142,1.8317,2.4474
286143,1.8301,2.4474
286144,1.8333,2.4498
286145,1.8317,2.4571
286146,1.8269,2.4627
286147,1.8341,2.4571
286148,1.8285,2.4555
286149,1.8301,2.4514
286150,1.8204,2.4587
286151,1.8301,2.4538
286152,1.8317,2.4611
286153,1.8293,2.4555
286154,1.8277,2.4579
286155,1.8285,2.4571
286156,1.8382,2.4555
286157,1.8285,2.4579
286158,1.8269,2.4555
286159,1.8285,2.4587
286160,1.8301,2.4587
286161,1.8196,2.4547
286162,1.8269,2.4651
286163,1.8269,2.4619
286164,1.8245,2.4530
286165,1.8285,2.4587
286166,1.8285,2.4595
286167,1.8269,2.4627
286168,1.8253,2.4619
286169,1.8269,2.4611
286170,1.8237,2.4611
286171,1.8341,2.4627
286172,1.8237,2.4627
286173,1.8253,2.4619
286174,1.8237,2.4474
286175,1.8237,2.4627
286176,1.8229,2.4627
286177,1.8188,2.4619
286178,1.8237,2.4627
286179,1.8221,2.4619
286180,1.8204,2.4627
286181,1.8180,2.4635
286182,1.8221,2.4635
286183,1.8212,2.4635
286184,1.8229,2.4643
286185,1.8237,2.4651
286186,1.8301,2.4643
286187,1.8188,2.4627
286188,1.8196,2.4659
286189,1.8269,2.4675
286190,1.8180,2.4651
286191,1.8237,2.4667
286192,1.8196,2.4651
286193,1.8188,2.4643
286194,1.8180,2.4667
286195,1.8253,2.4675
286196,1.8237,2.4643
286197,1.8212,2.4667
286198,1.8180,2.4700
286199,1.8221,2.4667
286200,1.8188,2.4627
286201,1.8221,2.4684
286202,1.8180,2.4547
286203,1.8196,2.4708
286204,1.8196,2.4708
286205,1.8180,2.4716
286206,1.8204,2.4748
286207,1.8188,2.4675
286208,1.8204,2.4667
286209,1.8212,2.4643
286210,1.8196,2.4708
286211,1.8229,2.4659
286212,1.8221,2.4684
286213,1.8221,2.4708
286214,1.8229,2.4708
286215,1.8180,2.4708
286216,1.8180,2.4708
286217,1.8180,2.4700
286218,1.8180,2.4740
286219,1.8196,2.4708
286220,1.8180,2.4708
286221,1.8156,2.4748
286222,1.8188,2.4732
286223,1.8196,2.4651
286224,1.8180,2.4740
286225,1.8180,2.4627
286226,1.8196,2.4732
286227,1.8140,2.4716
286228,1.8172,2.4700
286229,1.8180,2.4635
286230,1.8180,2.4603
286231,1.8180,2.4700
286232,1.8188,2.4732
286233,1.8180,2.4708
286234,1.8148,2.4748
286235,1.8180,2.4829
286236,1.8180,2.4732
286237,1.8180,2.4748
286238,1.8196,2.4748
286239,1.8156,2.4748
286240,1.8172,2.4716
286241,1.8172,2.4853
286242,1.8132,2.4708
286243,1.8156,2.4748
286244,1.8092,2.4748
286245,1.8293,2.4748
286246,1.8180,2.4748
286247,1.8124,2.4748
286248,1.8164,2.4732
286249,1.8180,2.4748
286250,1.8196,2.4732
286251,1.7930,2.4724
286252,1.8180,2.4748
286253,1.8164,2.4748
286254,1.8196,2.4748
286255,1.8140,2.4748
286256,1.8180,2.4748
286257,1.8156,2.4732
286258,1.8172,2.4748
286259,1.8180,2.4748
286260,1.8172,2.4748
286261,1.8156,2.4837
286262,1.8172,2.4748
286263,1.8156,2.4748
286264,1.8285,2.4748
286265,1.8148,2.4748
286266,1.8221,2.4748
286267,1.8180,2.4748
286268,1.8116,2.4740
286269,1.8269,2.4748
286270,1.8140,2.4748
286271,1.8188,2.4748
286272,1.8180,2.4748
286273,1.8172,2.4748
286274,1.8180,2.4748
286275,1.8204,2.4748
286276,1.8180,2.4748
286277,1.8172,2.4748
286278,1.8156,2.4748
286279,1.8188,2.4837
287508,1.7495,2.3749
287509,1.7423,2.3773
287510,1.7519,2.3765
287510,1.7519,2.3765
287510,1.7519,2.3765
287511,1.7423,2.3749
287512,1.7431,2.3773
287513,1.7463,2.3773
287514,1.7431,2.3708
287515,1.7495,2.3749
287516,1.7479,2.3733
287517,1.7463,2.3716
287518,1.7455,2.3708
287519,1.7519,2.3604
287520,1.7503,2.3733
287521,1.7495,2.3716
287522,1.7431,2.3708
287523,1.7479,2.3644
287524,1.7503,2.3757
287525,1.7503,2.3684
287526,1.7447,2.3668
287527,1.7487,2.3676
287528,1.7487,2.3853
287529,1.7519,2.3668
287530,1.7503,2.3708
287531,1.7495,2.3668
287532,1.7503,2.3676
287533,1.7527,2.3668
287534,1.7527,2.3644
287535,1.7544,2.3652
287536,1.7479,2.3668
287537,1.7536,2.3934
287538,1.7536,2.3652
287539,1.7544,2.3676
287540,1.7519,2.3652
287541,1.7527,2.3700
287542,1.7487,2.3652
287543,1.7511,2.3652
287544,1.7527,2.3652
287545,1.7527,2.3636
287546,1.7552,2.3700
287547,1.7552,2.3604
287548,1.7519,2.3684
287549,1.7527,2.3668
287550,1.7552,2.3652
287551,1.7560,2.3644
287552,1.7552,2.3676
287553,1.7536,2.3652
287554,1.7519,2.3668
287555,1.7503,2.3676
287556,1.7576,2.3652
287557,1.7592,2.3684
287558,1.7536,2.3716
287559,1.7544,2.3692
287560,1.7560,2.3676
287561,1.7544,2.3612
287562,1.7568,2.3700
287563,1.7560,2.3716
287564,1.7592,2.3644
287565,1.7544,2.3700
287566,1.7536,2.3700
287567,1.7544,2.3684
287568,1.7576,2.3652
287569,1.7576,2.3692
287570,1.7527,2.3676
287571,1.7584,2.3684
287572,1.7576,2.3716
287573,1.7576,2.3700
287574,1.7656,2.3725
287575,1.7560,2.3733
287576,1.7624,2.3692
287577,1.7536,2.3716
287578,1.7544,2.3708
287579,1.7576,2.3757
287580,1.7616,2.3700
287581,1.7576,2.3700
287582,1.7560,2.3684
287583,1.7584,2.3716
287584,1.7608,2.3708
287585,1.7592,2.3853
287586,1.7560,2.3765
287587,1.7624,2.3749
287588,1.7592,2.3741
287589,1.7576,2.3700
287590,1.7544,2.3676
287591,1.7584,2.3700
287592,1.7544,2.3725
287593,1.7608,2.3725
287594,1.7632,2.3749
287595,1.7584,2.3741
287596,1.7592,2.3725
287597,1.7576,2.3733
287598,1.7656,2.3741
287599,1.7463,2.3749
287600,1.7592,2.3733
287601,1.7608,2.3733
287602,1.7697,2.3749
287603,1.7648,2.3684
287604,1.7616,2.3765
287605,1.7584,2.3733
287606,1.7640,2.3781
287607,1.7560,2.3757
287608,1.7592,2.3596
287609,1.7608,2.3781
287610,1.7616,2.3725
287611,1.7616,2.3781
287612,1.7286,2.3773
287613,1.7664,2.3781
287614,1.7648,2.3773
287615,1.7616,2.3765
287616,1.7648,2.3716
287617,1.7584,2.3765
287618,1.7608,2.3741
287619,1.7576,2.3700
287620,1.7632,2.3765
287621,1.7632,2.3805
287622,1.7608,2.3797
287623,1.7608,2.3773
287624,1.7616,2.3700
287625,1.7640,2.3829
287626,1.7656,2.3749
287627,1.7592,2.3821
287628,1.7656,2.3813
287629,1.7664,2.3773
287630,1.7576,2.3765
287631,1.7616,2.3813
287632,1.7616,2.3805
287633,1.7656,2.3805
287634,1.7592,2.3781
287635,1.7616,2.3781
287636,1.7664,2.3813
287637,1.7632,2.3773
287638,1.7592,2.3805
287639,1.7624,2.3797
287640,1.7664,2.3821
287641,1.7664,2.3797
287642,1.7616,2.3781
287643,1.7616,2.3813
287644,1.7576,2.3781
287645,1.7640,2.3805
287646,1.7664,2.3725
287647,1.7632,2.3805
287648,1.7656,2.3781
287649,1.7616,2.3725
287650,1.7656,2.3596
287651,1.7656,2.3596
287652,1.7664,2.3579
287653,1.7648,2.3442
287654,1.7648,2.3676
287655,1.7664,2.3741
287656,1.7664,2.3781
287657,1.7648,2.3749
287658,1.7656,2.3684
287659,1.7664,2.3620
287660,1.7640,2.3716
287661,1.7785,2.3725
287662,1.7664,2.3668
287663,1.7705,2.3523
287664,1.7656,2.3346
287665,1.7681,2.3152
287666,1.7640,2.2967
287667,1.7640,2.2806
287668,1.7753,2.2749
287669,1.7664,2.2741
287670,1.7624,2.2798
287671,1.7664,2.2935
287672,1.7673,2.3096
287673,1.7664,2.3185
287674,1.7616,2.3096
287675,1.7664,2.2967
287676,1.7664,2.2975
287677,1.7648,2.3064
287678,1.7705,2.3072
287679,1.7664,2.2991
287680,1.7673,2.2798
287681,1.7640,2.2621
287682,1.7842,2.2475
287683,1.7664,2.2258
287684,1.7624,2.2169
287685,1.7681,2.2105
287686,1.7648,2.2193
287687,1.7664,2.2306
287688,1.7673,2.2451
287689,1.7753,2.2596
287690,1.7713,2.2701
287691,1.7713,2.2645
287692,1.7664,2.2524
287693,1.7705,2.2580
287694,1.7713,2.2653
287695,1.7656,2.2645
287696,1.7689,2.2556
287697,1.7729,2.2347
287698,1.7705,2.2258
287699,1.7785,2.2056
287700,1.7664,2.1911
287701,1.7664,2.2032
287702,1.7656,2.1895
287703,1.7689,2.1911
287704,1.7681,2.2064
287705,1.7656,2.2306
287706,1.7689,2.2427
287707,1.7664,2.2266
287708,1.7689,2.2306
287709,1.7697,2.2306
287710,1.7640,2.2419
287711,1.7721,2.2427
287712,1.7705,2.2427
287713,1.7689,2.2427
287714,1.7769,2.2073
287715,1.7681,2.1944
287716,1.7705,2.1774
287717,1.7632,2.1589
287718,1.7656,2.1589
287719,1.7616,2.1629
287720,1.7721,2.1718
287721,1.7664,2.1927
287722,1.7681,2.2105
287723,1.7664,2.2193
287724,1.7664,2.2347
287725,1.7681,2.2145
287726,1.7673,2.2169
287727,1.7664,2.2226
287728,1.7713,2.2234
287729,1.7664,2.2161
287730,1.7785,2.2056
287731,1.7705,2.1895
287732,1.7705,2.1718
287733,1.7656,2.1637
287734,1.7673,2.1452
287735,1.7673,2.1516
287736,1.7673,2.1525
287737,1.7689,2.1678
287738,1.7673,2.1879
287739,1.7576,2.2073
287740,1.7769,2.2056
287741,1.7664,2.2105
287742,1.7681,2.2056
287743,1.7705,2.2234
287744,1.7721,2.2201
287745,1.7745,2.2177
287746,1.7624,2.2056
287747,1.7664,2.1976
287748,1.7689,2.1799
287749,1.7664,2.1678
287750,1.7664,2.1331
287751,1.7664,2.1404
287752,1.7640,2.1436
287753,1.7640,2.1452
287754,1.7664,2.1670
287755,1.7689,2.1919
287756,1.7681,2.2274
287757,1.7648,2.2137
287758,1.7664,2.2048
287759,1.7681,2.2048
287760,1.7689,2.2137
287761,1.7753,2.2177
287762,1.7681,2.2081
287763,1.7721,2.1968
287764,1.7673,2.1863
287765,1.7656,2.1645
287766,1.7664,2.1525
287767,1.7664,2.1388
287768,1.7664,2.1307
287769,1.7664,2.1331
287770,1.7624,2.1476
287771,1.7664,2.1686
287772,1.7664,2.1984
287773,1.7673,2.2024
287774,1.7673,2.2048
287775,1.7656,2.1976
287776,1.7656,2.1936
287777,1.7681,2.2089
287778,1.7664,2.2121
287779,1.7673,2.2040
287780,1.7664,2.1936
287781,1.7640,2.1766
287782,1.7673,2.1557
287783,1.7697,2.1420
287784,1.7664,2.1323
287785,1.7689,2.1275
287786,1.7616,2.1331
287787,1.7664,2.1525
287788,1.7536,2.1742
287789,1.7713,2.1944
287790,1.7664,2.2000
287791,1.7656,2.1992
287792,1.7689,2.2185
287793,1.7721,2.2048
287794,1.7681,2.2056
287795,1.7664,2.2064
287796,1.7664,2.1968
287797,1.7681,2.1750
287798,1.7664,2.1662
287799,1.7664,2.1508
287800,1.7673,2.1315
287801,1.7664,2.1275
287802,1.7664,2.1226
287803,1.7624,2.1363
287804,1.7681,2.1516
287805,1.7664,2.1790
287806,1.7616,2.1960
287807,1.7705,2.1992
287808,1.7664,2.1911
287809,1.7705,2.1984
287810,1.7689,2.2040
287811,1.7681,2.2048
287812,1.7689,2.1976
287813,1.7697,2.1863
287814,1.7608,2.1774
287815,1.7689,2.1541
287816,1.7584,2.1412
287817,1.7697,2.1275
287818,1.7673,2.1202
287819,1.7673,2.1251
287820,1.7664,2.1428
287821,1.7681,2.1581
287822,1.7673,2.1911
287823,1.7721,2.1936
287824,1.7745,2.1960
287825,1.7721,2.1871
287826,1.7818,2.1911
287827,1.7721,2.1992
287828,1.7745,2.2000
287829,1.7664,2.1936
287830,1.7721,2.1799
287831,1.7801,2.1662
287832,1.7761,2.1460
287833,1.7664,2.1315
287834,1.7705,2.1170
287835,1.7713,2.1202
287836,1.7769,2.1234
287837,1.7705,2.1404
287838,1.7745,2.1645
287839,1.7705,2.1879
287840,1.7721,2.1927
287841,1.7834,2.1936
287842,1.7785,2.1839
287843,1.7721,2.1911
287844,1.7785,2.2016
287845,1.7810,2.1976
287846,1.7769,2.1815
287847,1.7769,2.1734
287848,1.7761,2.1589
287849,1.7785,2.1420
287850,1.7793,2.1251
287851,1.7753,2.1226
287852,1.7834,2.1186
287853,1.7705,2.1291
287854,1.7721,2.1484
287855,1.7801,2.1670
287856,1.7777,2.1847
287857,1.7793,2.1871
287858,1.7826,2.1976
287859,1.7810,2.1815
287860,1.7818,2.2040
287861,1.7834,2.2024
287862,1.7785,2.1911
287863,1.7818,2.1790
287864,1.7810,2.1678
287865,1.7793,2.1525
287866,1.7914,2.1323
287867,1.7810,2.1283
287868,1.7785,2.1146
287869,1.7785,2.1202
287870,1.7769,2.1291
287871,1.7793,2.1541
287872,1.7777,2.1790
287873,1.7801,2.1944
287874,1.7801,2.1911
287875,1.7640,2.1944
287876,1.7745,2.1790
287877,1.7801,2.1960
287878,1.7842,2.1968
287879,1.7818,2.1919
287880,1.7721,2.1807
287881,1.7818,2.1653
287882,1.7801,2.1500
287883,1.7769,2.1331
287884,1.7697,2.1234
287885,1.7721,2.1202
287886,1.7753,2.1251
287887,1.7721,2.1404
287888,1.7753,2.1621
287889,1.7721,2.1831
287890,1.7721,2.1952
287891,1.7761,2.2008
287892,1.7673,2.1895
287893,1.7697,2.1879
287894,1.7737,2.1927
287895,1.7777,2.1831
287896,1.7753,2.1879
287897,1.7785,2.1589
287898,1.7979,2.1428
287899,1.7745,2.1275
287900,1.7785,2.1065
287901,1.7745,2.1017
287902,1.7705,2.1057
287903,1.7705,2.1146
287904,1.7689,2.1299
287905,1.7721,2.1573
287906,1.7673,2.1790
287907,1.7721,2.1782
287908,1.7745,2.1815
287909,1.7664,2.1726
287910,1.7705,2.1815
287911,1.7705,2.1879
287912,1.7705,2.1782
287913,1.7664,2.1670
287914,1.7777,2.1557
287915,1.7721,2.1404
287916,1.7664,2.1097
287917,1.7705,2.1057
287918,1.7664,2.1146
287919,1.7664,2.1105
287920,1.7664,2.1267
287921,1.7713,2.1420
287922,1.7689,2.1670
287923,1.7616,2.1782
287924,1.7705,2.1533
287925,1.7689,2.1742
287926,1.7592,2.1742
287927,1.7689,2.1766
287928,1.7656,2.1863
287929,1.7664,2.1790
287930,1.7713,2.1678
287931,1.7648,2.1533
287932,1.7721,2.1388
287933,1.7560,2.1242
287934,1.7624,2.1178
287935,1.7664,2.1057
287936,1.7664,2.1138
287937,1.7648,2.1420
287938,1.7648,2.1533
287939,1.7664,2.1766
287940,1.7664,2.1790
287941,1.7592,2.1790
287942,1.7697,2.1774
287943,1.7656,2.1831
287944,1.7664,2.1871
287945,1.7648,2.1839
287946,1.7721,2.1742
287947,1.7689,2.1573
287948,1.7681,2.1508
287949,1.7664,2.1202
287950,1.7656,2.1170
287951,1.7640,2.1130
287952,1.7664,2.1089
287953,1.7664,2.1170
287954,1.7664,2.1355
287955,1.7624,2.1621
287956,1.7640,2.1766
287957,1.7705,2.1815
287958,1.7664,2.1774
287959,1.7664,2.1766
287960,1.7664,2.1790
287961,1.7673,2.1710
287962,1.7656,2.1815
287963,1.7737,2.1670
287964,1.7689,2.1533
287965,1.7664,2.1396
287966,1.7705,2.1275
287967,1.7664,2.1154
287968,1.7673,2.1065
287969,1.7616,2.1033
287970,1.7648,2.1202
287971,1.7664,2.1388
287972,1.7737,2.1589
287973,1.7664,2.1879
287974,1.7673,2.1790
287975,1.7681,2.1710
287976,1.7664,2.1742
287977,1.7673,2.1807
287978,1.7681,2.1831
287979,1.7664,2.1790
287980,1.7664,2.1662
287981,1.7463,2.1533
287982,1.7681,2.1379
287983,1.7681,2.1202
287984,1.7664,2.1073
287985,1.7664,2.1065
287986,1.7624,2.1138
287987,1.7818,2.1291
287988,1.7713,2.1516
287989,1.7673,2.1750
287990,1.7664,2.1839
287991,1.7979,2.1847
287992,1.7689,2.1742
287993,1.7930,2.1782
287994,1.7664,2.1895
287995,1.7648,2.1790
287996,1.7689,2.1686
287997,1.7737,2.1557
287998,1.7705,2.1404
287999,1.7697,2.1251
288000,1.7664,2.1105
288001,1.7705,2.1017
288002,1.7697,2.1017
288003,1.7664,2.1138
288004,1.7681,2.1291
288005,1.7648,2.1533
288006,1.7681,2.1734
288007,1.7705,2.1879
288008,1.7705,2.2016
288009,1.7673,2.1662
288010,1.7753,2.1750
288011,1.7697,2.1790
288012,1.7737,2.1742
288013,1.7793,2.1621
288014,1.7656,2.1492
288015,1.7689,2.1315
288016,1.7664,2.1170
288017,1.7673,2.1017
288018,1.7673,2.0968
288019,1.7673,2.1001
288020,1.7648,2.1138
288021,1.7681,2.1291
288022,1.7664,2.1533
288023,1.7640,2.1686
288024,1.7664,2.1750
288025,1.7664,2.1629
288026,1.7673,2.1589
288027,1.7640,2.1774
288028,1.7656,2.1718
288029,1.7519,2.1686
288030,1.7656,2.1541
288031,1.7664,2.1379
288032,1.7624,2.1275
288033,1.7640,2.1073
288034,1.7584,2.0993
288035,1.7616,2.0985
288036,1.7552,2.1017
288037,1.7544,2.1234
288038,1.7584,2.1331
288039,1.7600,2.1557
288040,1.7608,2.1702
288041,1.7616,2.1645
288042,1.7576,2.1589
288043,1.7552,2.1662
288044,1.7584,2.1750
288045,1.7560,2.1710
288046,1.7447,2.1629
288047,1.7487,2.1460
288048,1.7527,2.1315
288049,1.7503,2.1170
288050,1.7479,2.0622
288051,1.7495,2.0896
288052,1.7415,2.0912
288053,1.7487,2.0977
288054,1.7431,2.1331
288055,1.7439,2.1363
288056,1.7423,2.1589
288057,1.7407,2.1621
288058,1.7439,2.1557
288059,1.7407,2.1541
288060,1.7334,2.1613
288061,1.7390,2.1653
288062,1.7382,2.1581
288063,1.7366,2.1533
288064,1.7390,2.1355
288065,1.7358,2.1049
288066,1.7358,2.1009
288067,1.7302,2.0864
288068,1.7286,2.0622
288069,1.7326,2.0815
288070,1.7302,2.1009
288071,1.7262,2.1146
288072,1.7399,2.1428
288073,1.7310,2.1275
288074,1.7286,2.1533
288075,1.7221,2.1516
288076,1.7270,2.1662
288077,1.7197,2.1541
288078,1.7253,2.1533
288079,1.7262,2.1533
288080,1.7407,2.1404
288081,1.7221,2.1267
288082,1.7181,2.1073
288083,1.7149,2.0848
288084,1.7173,2.0622
288085,1.7149,2.0622
288086,1.7189,2.0622
288087,1.7149,2.0912
288088,1.7133,2.1162
288089,1.7108,2.1396
288090,1.7149,2.1444
288091,1.7149,2.1404
288092,1.7125,2.1323
288093,1.7149,2.1428
288094,1.7100,2.1492
288095,1.7141,2.1476
288096,1.7060,2.1355
288097,1.7092,2.1242
288098,1.7076,2.1089
288099,1.7076,2.0944
288100,1.7020,2.0622
288101,1.7036,2.0606
288102,1.7068,2.0622
288103,1.7028,2.0622
288104,1.7020,2.0904
288105,1.7020,2.1146
288106,1.7020,2.1323
288107,1.7020,2.1396
288108,1.7020,2.1323
288109,1.7020,2.1404
288110,1.7004,2.1396
288111,1.7004,2.1396
288112,1.7020,2.1347
288113,1.6979,2.1251
288114,1.7012,2.1138
288115,1.7020,2.0977
288116,1.7020,2.0848
288117,1.7020,2.0622
288118,1.6988,2.0558
288119,1.6979,2.0493
288120,1.7012,2.0614
288121,1.6996,2.0960
288122,1.6947,2.1138
288123,1.6963,2.1315
288124,1.6996,2.1291
288125,1.6979,2.1275
288126,1.6996,2.1267
288127,1.6979,2.1412
288128,1.7012,2.1363
288129,1.6971,2.1283
288130,1.6971,2.1049
288131,1.6979,2.1001
288132,1.6947,2.0920
288133,1.6979,2.0622
288134,1.6988,2.0606
288135,1.6971,2.0501
288136,1.6939,2.0558
288137,1.6939,2.0622
288138,1.6963,2.1001
288139,1.6947,2.1162
288140,1.6971,2.1275
288141,1.6988,2.1275
288142,1.6963,2.1186
288143,1.6979,2.1275
288144,1.6931,2.1299
288145,1.6818,2.1291
288146,1.7020,2.1178
288147,1.6971,2.1105
288148,1.7004,2.0960
288149,1.6915,2.0622
288150,1.7012,2.0622
288151,1.7020,2.0501
288152,1.6979,2.0501
288153,1.7004,2.0606
288154,1.6988,2.0807
288155,1.6963,2.1017
288156,1.6923,2.1508
288157,1.7012,2.1275
288158,1.6963,2.1234
288159,1.6988,2.1194
288160,1.6891,2.1283
288161,1.6996,2.1315
288162,1.7028,2.1259
288163,1.7068,2.1154
288164,1.6971,2.1025
288165,1.7052,2.0888
288166,1.7028,2.0622
288167,1.7012,2.0517
288168,1.6979,2.0485
288169,1.7012,2.0509
288170,1.6979,2.0622
288171,1.7028,2.0880
288172,1.6988,2.1073
288173,1.7044,2.1315
288174,1.7068,2.1275
288175,1.7044,2.1234
288176,1.7020,2.1162
288177,1.7036,2.1170
288178,1.7004,2.1283
288179,1.7068,2.1202
288180,1.7092,2.1146
288181,1.7028,2.1017
288182,1.7020,2.0840
288183,1.7020,2.0574
288184,1.7004,2.0501
288185,1.7044,2.0461
288186,1.7036,2.0558
288187,1.7060,2.0622
288188,1.7060,2.0896
288189,1.7100,2.1138
288190,1.7108,2.1259
288191,1.7076,2.1146
288192,1.7068,2.1186
288193,1.7141,2.1218
288194,1.7116,2.1283
288195,1.7092,2.1347
288196,1.7165,2.1242
288197,1.7060,2.1073
288198,1.7108,2.0944
288199,1.7100,2.0622
288200,1.7100,2.0606
288201,1.7092,2.0493
288202,1.7092,2.0445
288203,1.7108,2.0582
288204,1.7084,2.0622
288205,1.7116,2.1017
288206,1.7092,2.1194
288207,1.7076,2.1275
288208,1.7157,2.1114
288209,1.7141,2.1162
288210,1.7133,2.1242
288211,1.7141,2.1323
288212,1.7149,2.1283
288213,1.7165,2.1154
288214,1.7149,2.1057
288215,1.7141,2.0896
288216,1.7149,2.0622
288217,1.7149,2.0549
288218,1.7141,2.0477
288219,1.7189,2.0501
288220,1.7149,2.0622
288221,1.7149,2.0896
288222,1.7181,2.0977
288223,1.7165,2.1259
288224,1.7197,2.1396
288225,1.7205,2.1242
288226,1.7205,2.1267
288227,1.7189,2.1315
288228,1.7221,2.1315
288229,1.7270,2.1234
288230,1.7229,2.1194
288231,1.7253,2.1073
288232,1.7286,2.0896
288233,1.7253,2.0622
288234,1.7286,2.0574
288235,1.7205,2.0501
288236,1.7270,2.0582
288237,1.7221,2.0622
288238,1.7205,2.1017
288239,1.7286,2.1259
288240,1.7334,2.1355
288241,1.7326,2.1363
288242,1.7382,2.1275
288243,1.7302,2.1291
288244,1.7390,2.1379
288245,1.7390,2.1379
288246,1.7407,2.1275
288247,1.7390,2.1162
288248,1.7407,2.1025
288249,1.7447,2.0880
288250,1.7366,2.0622
288251,1.7382,2.0606
288252,1.7390,2.0541
288253,1.7382,2.0622
288254,1.7358,2.0872
288255,1.7366,2.1154
288256,1.7390,2.1323
288257,1.7415,2.1428
288258,1.7407,2.1379
288259,1.7407,2.1347
288260,1.7366,2.1379
288261,1.7423,2.1444
288262,1.7407,2.1388
288263,1.7415,2.1283
288264,1.7399,2.1170
288265,1.7390,2.1073
288266,1.7366,2.0872
288267,1.7415,2.0622
288268,1.7366,2.0614
288269,1.7366,2.0622
288270,1.7294,2.0807
288271,1.7407,2.0944
288272,1.7149,2.1234
288273,1.7487,2.1412
288274,1.7350,2.1476
288275,1.7318,2.1371
288276,1.7390,2.1355
288277,1.7366,2.1388
288278,1.7390,2.1484
288279,1.7302,2.1355
288280,1.7399,2.1275
288281,1.7334,2.1146
288282,1.7294,2.1017
288283,1.7407,2.0815
288284,1.7302,2.0412
288285,1.7270,2.0558
288286,1.7334,2.0622
288287,1.7318,2.0848
288288,1.7189,2.1065
288289,1.7205,2.1299
288290,1.7495,2.1412
288291,1.7286,2.1444
288292,1.7302,2.1331
288293,1.7270,2.1379
288294,1.7270,2.1412
288295,1.7262,2.1396
288296,1.7278,2.1299
288297,1.7229,2.1234
288298,1.7270,2.1065
288299,1.7205,2.0896
288300,1.7237,2.0622
288301,1.7270,2.0590
288302,1.7229,2.0598
288303,1.7157,2.0622
288304,1.7262,2.0912
288305,1.7181,2.1130
288306,1.7197,2.1299
288307,1.7189,2.1388
288308,1.7173,2.1331
288309,1.7189,2.1307
288310,1.7205,2.1363
288311,1.7165,2.1388
288312,1.7189,2.1275
288313,1.7189,2.1178
288314,1.7149,2.1130
288315,1.7149,2.0977
288316,1.7125,2.0622
288317,1.7157,2.0598
288318,1.7173,2.0549
288319,1.7149,2.0582
288320,1.7133,2.0622
288321,1.7125,2.0896
288322,1.7165,2.1105
288323,1.7133,2.1275
288324,1.7141,2.1299
288325,1.7076,2.1283
288326,1.7141,2.1234
288327,1.7084,2.1299
288328,1.7060,2.1299
288329,1.7068,2.1275
288330,1.7068,2.1146
288331,1.7020,2.1001
288332,1.7125,2.0525
288333,1.7133,2.0622
288334,1.7044,2.0509
288335,1.7020,2.0501
288336,1.7092,2.0533
288337,1.7052,2.0622
288338,1.7036,2.0944
288339,1.7125,2.1130
288340,1.7052,2.1226
288341,1.7060,2.1234
288342,1.7044,2.1154
288343,1.7028,2.1041
288344,1.7036,2.1323
288345,1.7036,2.1412
288346,1.7020,2.1202
288347,1.7036,2.1065
288348,1.7092,2.0968
288349,1.6939,2.0622
288350,1.6996,2.0622
288351,1.7036,2.0461
288352,1.7020,2.0469
288353,1.7028,2.0558
288354,1.7004,2.0622
288355,1.7028,2.1017
288356,1.6939,2.1226
288357,1.7012,2.1275
288358,1.6996,2.1226
288359,1.7108,2.1178
288360,1.6947,2.1275
288361,1.6971,2.1275
288362,1.6963,2.1267
288363,1.7012,2.1130
288364,1.6979,2.1226
288365,1.6996,2.0896
288366,1.6963,2.0622
288367,1.6971,2.0509
288368,1.6979,2.0404
288369,1.7004,2.0453
288370,1.6939,2.0541
288371,1.6996,2.0799
288372,1.6939,2.1065
288373,1.6931,2.1194
288374,1.6947,2.1315
288375,1.6907,2.1114
288376,1.6883,2.1097
288377,1.6907,2.1234
288378,1.6891,2.1275
288379,1.6891,2.1178
288380,1.6891,2.1105
288381,1.6891,2.0960
288382,1.6859,2.0622
288383,1.6883,2.0566
288384,1.6883,2.0364
288385,1.6883,2.0396
288386,1.6899,2.0461
288387,1.6834,2.0622
288388,1.6842,2.0856
288389,1.6867,2.1073
288390,1.6859,2.1202
288391,1.6786,2.1146
288392,1.6851,2.1146
288393,1.6867,2.1146
288394,1.6810,2.1202
288395,1.6786,2.1283
288396,1.6762,2.1105
288397,1.6818,2.1001
288398,1.6762,2.0832
288399,1.6754,2.0622
288400,1.6770,2.0396
288401,1.6762,2.0396
288402,1.6762,2.0388
288403,1.6738,2.0364
288404,1.6754,2.0622
288405,1.6762,2.0896
288406,1.6722,2.1105
288407,1.6689,2.1154
288408,1.6754,2.1089
288409,1.6722,2.1073
288410,1.6746,2.1089
288411,1.6786,2.1146
288412,1.6754,2.1146
288413,1.6738,2.1065
288414,1.6770,2.0912
288415,1.6705,2.0622
288416,1.6754,2.0525
288417,1.6754,2.0348
288418,1.6681,2.0243
288419,1.6730,2.0243
288420,1.6714,2.0412
288421,1.6762,2.0590
288422,1.6641,2.0888
288423,1.6714,2.1202
288424,1.6705,2.1057
288425,1.6689,2.1017
288426,1.6681,2.1001
288427,1.6657,2.1041
288428,1.6641,2.1089
288429,1.6609,2.1017
288430,1.6681,2.0888
288431,1.6633,2.0622
288432,1.6625,2.0582
288433,1.6633,2.0388
288434,1.6609,2.0243
288435,1.6625,2.0219
288436,1.6633,2.0243
288437,1.6649,2.0412
288438,1.6480,2.0574
288439,1.6649,2.0880
288440,1.6585,2.1017
288441,1.6633,2.1017
288442,1.6609,2.0912
288443,1.6633,2.0968
288444,1.6496,2.1017
288445,1.6609,2.1017
288446,1.6464,2.0872
288447,1.6560,2.0840
288448,1.6448,2.0622
288449,1.6617,2.0485
288450,1.6560,2.0332
288451,1.6601,2.0187
288452,1.6496,2.0114
288453,1.6577,2.0267
288454,1.6496,2.0348
288455,1.6552,2.0622
288456,1.6496,2.0888
288457,1.6552,2.0944
288458,1.6496,2.0993
288459,1.6488,2.0880
288460,1.6496,2.0968
288461,1.6464,2.1033
288462,1.6456,2.0993
288463,1.6448,2.0872
288464,1.6480,2.0622
288465,1.6496,2.0412
288466,1.6472,2.0388
288467,1.6722,2.0219
288468,1.6456,2.0138
288469,1.6423,2.0130
288470,1.6480,2.0235
288471,1.6423,2.0461
288472,1.6432,2.0622
288473,1.6665,2.0848
288474,1.6464,2.0872
288475,1.6399,2.0622
288476,1.6456,2.0864
288477,1.6448,2.0888
288478,1.6464,2.1009
288479,1.6407,2.0848
288480,1.6391,2.0622
288481,1.6415,2.0606
288482,1.6415,2.0412
288483,1.6464,2.0332
288484,1.6423,2.0106
288485,1.6423,2.0001
288486,1.6432,2.0122
288487,1.6399,2.0243
288488,1.6432,2.0493
288489,1.6399,2.0622
288490,1.6399,2.0622
288491,1.6407,2.0832
288492,1.6367,2.0622
288493,1.6391,2.0799
288494,1.6367,2.0872
288495,1.6367,2.1001
288496,1.6375,2.0622
288497,1.6367,2.0622
288498,1.6327,2.0501
288499,1.6270,2.0243
288500,1.6375,2.0155
288501,1.6303,2.0042
288502,1.6399,1.9913
288503,1.6351,2.0114
288504,1.6375,2.0316
288505,1.6391,2.0501
288506,1.6295,2.0622
288507,1.6367,2.0840
288508,1.6351,2.0807
288509,1.6359,2.0622
288510,1.6544,2.0815
288511,1.6335,2.0880
288512,1.6295,2.0815
288513,1.6335,2.0622
288514,1.6335,2.0541
288515,1.6303,2.0429
288516,1.6367,2.0243
288517,1.6375,2.0090
288518,1.6375,1.9985
288519,1.6319,2.0074
288520,1.6335,2.0155
288521,1.6375,2.0340
288522,1.6375,2.0525
288523,1.6359,2.0622
288524,1.6399,2.0799
288525,1.6351,2.0622
288526,1.6367,2.0622
288527,1.6367,2.0832
288528,1.6367,2.0622
288529,1.6351,2.0799
288530,1.6367,2.0622
288531,1.6367,2.0501
288532,1.6383,1.9881
288533,1.6335,2.0203
288534,1.6375,2.0066
288535,1.6375,1.9993
288536,1.6359,2.0042
288537,1.6343,2.0203
288538,1.6359,2.0364
288539,1.6375,2.0622
288540,1.6327,2.0622
288541,1.6391,2.0622
288542,1.6367,2.0622
288543,1.6351,2.0622
288544,1.6375,2.0622
288545,1.6375,2.0622
288546,1.6383,2.0622
288547,1.6375,2.0477
288548,1.6448,2.0445
288549,1.6367,2.0300
288550,1.6391,2.0155
288551,1.6375,2.0034
288552,1.6375,2.0122
288553,1.6448,2.0106
288554,1.6295,2.0292
288555,1.6383,2.0622
288556,1.6423,2.0622
288557,1.6415,2.0622
288558,1.6415,2.0872
288559,1.6440,2.0622
288560,1.6383,2.1001
288561,1.6375,2.0880
288562,1.6617,2.0848
288563,1.6399,2.0622
288564,1.6399,2.0590
288565,1.6423,2.0461
288566,1.6480,2.0243
288567,1.6440,2.0010
288568,1.6480,1.9985
288569,1.6480,2.0042
288570,1.6496,2.0114
288571,1.6456,2.0340
288572,1.6496,2.0606
288573,1.6488,2.0815
288574,1.6496,2.0815
288575,1.6448,2.0832
288576,1.6488,2.0622
288577,1.6399,2.0888
288578,1.6488,2.0912
288579,1.6544,2.0815
288580,1.6448,2.0622
288581,1.6560,2.0549
288582,1.6496,2.0404
288583,1.6496,2.0267
288584,1.6544,2.0106
288585,1.6480,2.0098
288586,1.6488,2.0114
288587,1.6552,2.0243
288588,1.6577,2.0461
288589,1.6568,2.0622
288590,1.6496,2.0872
288591,1.6383,2.0880
288592,1.6496,2.0622
288593,1.6544,2.0622
288594,1.6577,2.0936
288595,1.6593,2.0944
288596,1.6560,2.0622
288597,1.6552,2.0622
288598,1.6488,2.0525
288599,1.6552,2.0380
288600,1.6577,2.0243
288601,1.6480,2.0042
288602,1.6625,2.0066
288603,1.6609,2.0090
288604,1.6544,2.0316
288605,1.6544,2.0549
288606,1.6609,2.0936
288607,1.6585,2.0864
288608,1.6560,2.0856
288609,1.6560,2.0799
288610,1.6552,2.0864
288611,1.6609,2.0912
288612,1.6560,2.0920
288613,1.6577,2.0622
288614,1.6568,2.0622
288615,1.6593,2.0501
288616,1.6472,2.0356
288617,1.6560,2.0163
288618,1.6585,2.0090
288619,1.6593,2.0066
288620,1.6593,2.0356
288621,1.6585,2.0388
288622,1.6633,2.0622
288623,1.6633,2.0864
288624,1.6609,2.0904
288625,1.6705,2.0880
288626,1.6625,2.0864
288627,1.6625,2.0815
288628,1.6609,2.0968
288629,1.6617,2.0815
288630,1.6617,2.0622
288631,1.6673,2.0622
288632,1.6649,2.0421
288633,1.6633,2.0243
288634,1.6633,2.0090
288635,1.6560,2.0042
288636,1.6633,2.0090
288637,1.6633,2.0235
288638,1.6617,2.0445
288639,1.6633,2.0622
288640,1.6593,2.0864
288641,1.6609,2.0896
288642,1.6625,2.0807
288643,1.6601,2.0888
288644,1.6641,2.0904
288645,1.6560,2.0936
288646,1.6625,2.0815
288647,1.6593,2.0622
288648,1.6593,2.0549
288649,1.6633,2.0380
288650,1.6593,2.0235
288651,1.6609,2.0106
288652,1.6609,2.0114
288653,1.6625,2.0203
288654,1.6625,2.0324
288655,1.6560,2.0598
288656,1.6593,2.0993
288657,1.6577,2.0920
288658,1.6609,2.1146
288659,1.6625,2.0582
288660,1.6375,2.0960
288661,1.6609,2.0936
288662,1.6407,2.1009
288663,1.6625,2.0888
288664,1.6585,2.0622
288665,1.6343,2.0558
288666,1.6625,2.0421
288667,1.6633,2.0243
288668,1.6657,2.0163
288669,1.6633,2.0171
288670,1.6633,2.0292
288671,1.6625,2.0501
288672,1.6625,2.0622
288673,1.6617,2.0944
288674,1.6617,2.1009
288675,1.6617,2.0985
288676,1.6593,2.0896
288677,1.6609,2.1017
288678,1.6617,2.0904
288679,1.6625,2.1009
288680,1.6633,2.0928
288681,1.6625,2.0622
288682,1.6625,2.0541
288683,1.6617,2.0380
288684,1.6633,2.0219
288685,1.6593,2.0106
288686,1.6641,2.0243
288687,1.6641,2.0356
288688,1.6633,2.0598
288689,1.6633,2.0904
288690,1.6617,2.1033
288691,1.6609,2.0993
288692,1.6625,2.0977
288693,1.6593,2.0944
288694,1.6633,2.1041
288695,1.6641,2.1073
288696,1.6633,2.1009
288697,1.6625,2.0912
288698,1.6633,2.0622
288699,1.6617,2.0509
288700,1.6633,2.0122
288701,1.6641,2.0251
288702,1.6593,2.0243
288703,1.6617,2.0300
288704,1.6649,2.0485
288705,1.6633,2.0815
288706,1.6625,2.0977
288707,1.6649,2.1041
288708,1.6649,2.1017
288709,1.6552,2.0977
288710,1.6609,2.1017
288711,1.6601,2.1025
288712,1.6649,2.1065
288713,1.6641,2.0993
288714,1.6641,2.0904
288715,1.6633,2.0622
288716,1.6633,2.0485
288717,1.6633,2.0340
288718,1.6641,2.0501
288719,1.6641,2.0332
288720,1.6657,2.0396
288721,1.6633,2.0501
288722,1.6649,2.0848
288723,1.6649,2.1017
288724,1.6633,2.1041
288725,1.6633,2.0985
288726,1.6633,2.0977
288727,1.6657,2.1073
288728,1.6633,2.1057
288729,1.6657,2.1017
288730,1.6657,2.0912
288731,1.6625,2.0872
288732,1.6633,2.0590
288733,1.6649,2.0461
288734,1.6633,2.0203
288735,1.6641,2.0195
288736,1.6633,2.0243
288737,1.6383,2.0380
288738,1.6705,2.0614
288739,1.6649,2.0896
288740,1.6649,2.1009
288741,1.6641,2.0904
288742,1.6657,2.0960
288743,1.6633,2.0977
288744,1.6649,2.1009
288745,1.6633,2.1049
288746,1.6649,2.0936
288747,1.6657,2.0880
288748,1.6633,2.0622
288749,1.6641,2.0501
288750,1.6633,2.0348
288751,1.6633,2.0219
288752,1.6609,2.0243
288753,1.6649,2.0284
288754,1.6649,2.0356
288755,1.6633,2.0622
288756,1.6633,2.0928
288757,1.6641,2.1025
288758,1.6641,2.0993
288759,1.6673,2.0993
288760,1.6633,2.1041
288761,1.6641,2.1073
288762,1.6601,2.1073
288763,1.6625,2.1009
288764,1.6633,2.0807
288765,1.6641,2.0622
288766,1.6593,2.0501
288767,1.6625,2.0348
288768,1.6633,2.0211
288769,1.6657,2.0243
288770,1.6689,2.0453
288771,1.6617,2.0525
288772,1.6641,2.0807
288773,1.6665,2.0960
288774,1.6633,2.1275
288775,1.6657,2.0985
288776,1.6625,2.1009
288777,1.6633,2.1057
288778,1.6657,2.1089
288779,1.6641,2.1065
288780,1.6633,2.0888
288781,1.6633,2.0622
288782,1.6633,2.0622
288783,1.6415,2.0412
288784,1.6641,2.0300
288785,1.6641,2.0195
288786,1.6633,2.0259
288787,1.6633,2.0396
288788,1.6641,2.0622
288789,1.6633,2.0912
288790,1.6649,2.1049
288791,1.6633,2.1017
288792,1.6641,2.0944
288793,1.6657,2.1009
288794,1.6681,2.0985
288795,1.6633,2.1073
288796,1.6762,2.1041
288797,1.6641,2.0936
288798,1.6633,2.0622
288799,1.6649,2.0558
288800,1.6633,2.0421
288801,1.6657,2.0267
288802,1.6705,2.0130
288803,1.6633,2.0122
288804,1.6633,2.0501
288805,1.6633,2.0622
288806,1.6633,2.1001
288807,1.6641,2.1057
288808,1.6633,2.1033
288809,1.6657,2.1009
288810,1.6593,2.1073
288811,1.6633,2.1122
288812,1.6633,2.1154
288813,1.6649,2.1017
288814,1.6649,2.0896
288815,1.6641,2.0622
288816,1.6657,2.0485
288817,1.6657,2.0549
288818,1.6649,2.0284
288819,1.6714,2.0259
288820,1.6633,2.0364
288821,1.6633,2.0558
288822,1.6633,2.0872
288823,1.6641,2.1009
288824,1.6657,2.1057
288825,1.6673,2.1009
288826,1.6681,2.1017
288827,1.6649,2.1033
288828,1.6633,2.1097
288829,1.6633,2.0928
288830,1.6633,2.0936
288831,1.6625,2.0832
288832,1.6657,2.0614
288833,1.6681,2.0429
288834,1.6633,2.0155
288835,1.6649,2.0243
288836,1.6617,2.0292
288837,1.6778,2.0445
288838,1.6464,2.0622
288839,1.6673,2.0904
288840,1.6633,2.1033
288841,1.6649,2.1033
288842,1.6649,2.0840
288843,1.6625,2.1017
288844,1.6673,2.1114
288845,1.6641,2.1122
288846,1.6633,2.1017
288847,1.6633,2.0848
288848,1.6633,2.0622
288849,1.6633,2.0558
288850,1.6633,2.0396
288851,1.6633,2.0251
288852,1.6633,2.0243
288853,1.6673,2.0316
288854,1.6641,2.0501
288855,1.6673,2.0622
288856,1.6641,2.0985
288857,1.6665,2.1041
288858,1.6665,2.1033
288859,1.6633,2.0993
288860,1.6633,2.1017
288861,1.6609,2.1114
288862,1.6641,2.1065
288863,1.6633,2.0985
288864,1.6633,2.0864
288865,1.6625,2.0622
288866,1.6601,2.0525
288867,1.6633,2.0477
288868,1.6649,2.0235
288869,1.6633,2.0243
288870,1.6633,2.0348
288871,1.6641,2.0590
288872,1.6649,2.0840
288873,1.6633,2.1041
288874,1.6633,2.1041
288875,1.6633,2.1041
288876,1.6673,2.1025
288877,1.6633,2.1105
288878,1.6633,2.1122
288879,1.6633,2.1041
288880,1.6633,2.1017
288881,1.6617,2.0896
288882,1.6641,2.0622
288883,1.6625,2.0461
288884,1.6738,2.0300
288885,1.6633,2.0259
288886,1.6641,2.0259
288887,1.6673,2.0461
288888,1.6633,2.0622
288889,1.6633,2.0904
288890,1.6633,2.1025
288891,1.6633,2.1057
288892,1.6641,2.1009
288893,1.6802,2.1017
288894,1.6625,2.1073
288895,1.6641,2.1089
288896,1.6673,2.1017
288897,1.6633,2.0936
288898,1.6633,2.0799
288899,1.6641,2.0525
288900,1.6633,2.0372
288901,1.6665,2.0243
288902,1.6689,2.0243
288903,1.6633,2.0356
288904,1.6633,2.0453
288905,1.6641,2.0622
288906,1.6649,2.0944
288907,1.6738,2.1041
288908,1.6633,2.1033
288909,1.6617,2.1009
288910,1.6641,2.1017
288911,1.6633,2.1025
288912,1.6641,2.0944
288913,1.6633,2.0807
288914,1.6714,2.0622
288915,1.6617,2.0461
288916,1.6641,2.0332
288917,1.6625,2.0187
288918,1.6617,2.0074
288919,1.6641,2.0195
288920,1.6617,2.0243
288921,1.6633,2.0372
288922,1.6633,2.0622
288923,1.6649,2.0960
288924,1.6657,2.0872
288925,1.6609,2.0872
288926,1.6617,2.0799
288927,1.6625,2.0960
288928,1.6633,2.0928
288929,1.6625,2.0936
288930,1.6641,2.0848
288931,1.6641,2.0614
288932,1.6633,2.0517
288933,1.6649,2.0316
288934,1.6633,2.0163
288935,1.6649,2.0130
288936,1.6633,2.0243
288937,1.6633,2.0259
288938,1.6609,2.0517
288939,1.6641,2.0815
288940,1.6609,2.0977
288941,1.6625,2.0896
288942,1.6633,2.0936
288943,1.6633,2.0928
288944,1.6633,2.1017
288945,1.6633,2.1017
288946,1.6633,2.1025
288947,1.6633,2.0622
288948,1.6593,2.0590
288949,1.6633,2.0501
288950,1.6625,2.0348
288951,1.6625,2.0203
288952,1.6633,2.0211
288953,1.6625,2.0251
288954,1.6617,2.0364
288955,1.6641,2.0614
288956,1.6641,2.0880
288957,1.6689,2.1017
288958,1.6617,2.0993
288959,1.6560,2.0993
288960,1.6633,2.1017
288961,1.6641,2.1025
288962,1.6617,2.1033
288963,1.6673,2.0944
288964,1.6633,2.0832
288965,1.6633,2.0614
288966,1.6633,2.0485
288967,1.6585,2.0316
288968,1.6617,2.0219
288969,1.6697,2.0195
288970,1.6673,2.0292
288971,1.6617,2.0501
288972,1.6633,2.0622
288973,1.6681,2.0968
288974,1.6617,2.1146
288975,1.6641,2.0977
288976,1.6649,2.0993
288977,1.6617,2.1041
288978,1.6617,2.1105
288979,1.6633,2.1017
288980,1.6633,2.0840
288981,1.6649,2.0622
288982,1.6633,2.0574
288983,1.6633,2.0429
288984,1.6657,2.0284
288985,1.6633,2.0219
288986,1.6633,2.0243
288987,1.6625,2.0396
288988,1.6657,2.0574
288989,1.6617,2.0864
288990,1.6609,2.1017
288991,1.6625,2.1057
288992,1.6633,2.1025
288993,1.6633,2.0977
288994,1.6633,2.1025
288995,1.6633,2.1065
288996,1.6609,2.1009
288997,1.6633,2.0904
288998,1.6633,2.0622
288999,1.6633,2.0558
289000,1.6472,2.0404
289001,1.6633,2.0243
289002,1.6593,2.0243
289003,1.6633,2.0259
289004,1.6625,2.0461
289005,1.6649,2.0622
289006,1.6633,2.0968
289007,1.6633,2.1073
289008,1.6625,2.1017
289009,1.6593,2.1041
289010,1.6633,2.1009
289011,1.6625,2.1041
289012,1.6641,2.0993
289013,1.6593,2.0936
289014,1.6633,2.0864
289015,1.6633,2.0622
289016,1.6617,2.0461
289017,1.6633,2.0284
289018,1.6641,2.0243
289019,1.6633,2.0058
289020,1.6649,2.0316
289021,1.6560,2.0493
289022,1.6617,2.0622
289023,1.6593,2.1017
289024,1.6633,2.1017
289025,1.6625,2.1017
289026,1.6633,2.0968
289027,1.6617,2.1073
289028,1.6633,2.1041
289029,1.6633,2.1025
289030,1.6609,2.0977
289031,1.6560,2.0622
289032,1.6633,2.0590
289033,1.6617,2.0429
289034,1.6641,2.0324
289035,1.6633,2.0243
289036,1.6633,2.0243
289037,1.6633,2.0348
289038,1.6609,2.0171
289039,1.6617,2.0864
289040,1.6625,2.1049
289041,1.6641,2.1017
289042,1.6689,2.0985
289043,1.6633,2.0985
289044,1.6738,2.1146
289045,1.6633,2.1089
289046,1.6601,2.1017
289047,1.6609,2.0880
289048,1.6633,2.0622
289049,1.6609,2.0525
289050,1.6625,2.0364
289051,1.6633,2.0251
289052,1.6633,2.0243
289053,1.6633,2.0251
289054,1.6649,2.0493
289055,1.6633,2.0622
289056,1.6625,2.0977
289057,1.6609,2.1057
289058,1.6625,2.1057
289059,1.6601,2.0977
289060,1.6633,2.1017
289061,1.6633,2.1049
289062,1.6609,2.1097
289063,1.6617,2.1009
289064,1.6641,2.0815
289065,1.6633,2.0622
289066,1.6633,2.0461
289067,1.6633,2.0300
289068,1.6617,2.0235
289069,1.6633,2.0219
289070,1.6633,2.0284
289071,1.6633,2.0493
289072,1.6641,2.0799
289073,1.6609,2.1017
289074,1.6488,2.1041
289075,1.6633,2.0944
289076,1.6641,2.0960
289077,1.6625,2.1065
289078,1.6601,2.1122
289079,1.6617,2.1041
289080,1.6633,2.0944
289081,1.6609,2.0832
289082,1.6641,2.0614
289083,1.6633,2.0461
289084,1.6633,2.0267
289085,1.6633,2.0251
289086,1.6617,2.0267
289087,1.6609,2.0445
289088,1.6633,2.0622
289089,1.6633,2.0848
289090,1.6705,2.1122
289091,1.6633,2.1033
289092,1.6633,2.0993
289093,1.6633,2.1001
289094,1.6633,2.1025
289095,1.6617,2.1073
289096,1.6633,2.1017
289097,1.6673,2.0928
289098,1.6633,2.0622
289099,1.6633,2.0525
289100,1.6625,2.0364
289101,1.6657,2.0243
289102,1.6633,2.0219
289103,1.6617,2.0292
289104,1.6633,2.0445
289105,1.6633,2.0622
289106,1.6625,2.0912
289107,1.6609,2.1017
289108,1.6625,2.0985
289109,1.6633,2.0936
289110,1.6617,2.0977
289111,1.6641,2.1073
289112,1.6625,2.1033
289113,1.6649,2.0896
289114,1.6633,2.0799
289115,1.6625,2.0622
289116,1.6617,2.0493
289117,1.6585,2.0284
289118,1.6633,2.0203
289119,1.6665,2.0235
289120,1.6657,2.0316
289121,1.6625,2.0509
289122,1.6625,2.0807
289123,1.6633,2.0968
289124,1.6633,2.1009
289125,1.6649,2.1001
289126,1.6633,2.0904
289127,1.6617,2.1025
289128,1.6601,2.1097
289129,1.6633,2.1017
289130,1.6633,2.0912
289131,1.6625,2.0622
289132,1.6625,2.0606
289133,1.6633,2.0445
289134,1.6625,2.0251
289135,1.6633,2.0219
289136,1.6641,2.0243
289137,1.6641,2.0364
289138,1.6609,2.0574
289139,1.6617,2.0856
289140,1.6633,2.0993
289141,1.6625,2.1001
289142,1.6593,2.1017
289143,1.6633,2.1001
289144,1.6633,2.1025
289145,1.6633,2.0960
289146,1.6625,2.1017
289147,1.6641,2.0848
289148,1.6633,2.0622
289149,1.6689,2.0493
289150,1.6633,2.0364
289151,1.6649,2.0227
289152,1.6625,2.0219
289153,1.6649,2.0251
289154,1.6633,2.0445
289155,1.6609,2.0622
289156,1.6617,2.0888
289157,1.6633,2.1025
289158,1.6633,2.1025
289159,1.6665,2.0968
289160,1.6633,2.1001
289161,1.6649,2.1073
289162,1.6633,2.1017
289163,1.6633,2.0960
289164,1.6633,2.0848
289165,1.6641,2.0622
289166,1.6625,2.0501
289167,1.6633,2.0340
289168,1.6633,2.0243
289169,1.6633,2.0203
289170,1.6842,2.0292
289171,1.6649,2.0501
289172,1.6633,2.0622
289173,1.6560,2.0944
289174,1.6633,2.1017
289175,1.6625,2.0977
289176,1.6657,2.1017
289177,1.6633,2.1025
289178,1.6722,2.1073
289179,1.6649,2.1017
289180,1.6689,2.0977
289181,1.6633,2.0622
289182,1.6633,2.0622
289183,1.6633,2.0485
289184,1.6633,2.0284
289185,1.6810,2.0243
289186,1.6714,2.0251
289187,1.6899,2.0372
289188,1.6633,2.0574
289189,1.6633,2.0880
289190,1.6633,2.1041
289191,1.6633,2.1009
289192,1.6641,2.1009
289193,1.6633,2.0977
289194,1.6633,2.1122
289195,1.6665,2.1065
289196,1.6673,2.1025
289197,1.6633,2.0888
289198,1.6649,2.0622
289199,1.6649,2.0590
289200,1.6649,2.0380
289201,1.6665,2.0243
289202,1.6665,2.0243
289203,1.6673,2.0259
289204,1.6633,2.0445
289205,1.6673,2.0622
289206,1.6665,2.0944
289207,1.6641,2.1033
289208,1.6681,2.1146
289209,1.6617,2.0985
289210,1.6673,2.1017
289211,1.6730,2.1073
289212,1.6641,2.1025
289213,1.6625,2.0977
289214,1.6657,2.0864
289215,1.6689,2.0606
289216,1.6641,2.0509
289217,1.6633,2.0316
289218,1.6673,2.0243
289219,1.6673,2.0203
289220,1.6609,2.0348
289221,1.6633,2.0485
289222,1.6633,2.0622
289223,1.6633,2.0977
289224,1.6689,2.1146
289225,1.6689,2.1017
289226,1.6673,2.0977
289227,1.6641,2.1049
289228,1.6681,2.1097
289229,1.6633,2.1041
289230,1.6649,2.0968
289231,1.6641,2.0880
289232,1.6673,2.0622
289233,1.6657,2.0429
289234,1.6657,2.0259
289235,1.6705,2.0211
289236,1.6689,2.0324
289237,1.6681,2.0300
289238,1.6633,2.0606
289239,1.6681,2.0888
289240,1.6722,2.1025
289241,1.6633,2.1025
289242,1.6705,2.1017
289243,1.6689,2.1017
289244,1.6649,2.1097
289245,1.6689,2.1097
289246,1.6633,2.1041
289247,1.6649,2.0896
289248,1.6649,2.0622
289249,1.6689,2.0614
289250,1.6633,2.0396
289251,1.6689,2.0251
289252,1.6649,2.0243
289253,1.6681,2.0300
289254,1.6714,2.0493
289255,1.6681,2.0622
289256,1.6665,2.0968
289257,1.6649,2.1073
289258,1.6714,2.1041
289259,1.6673,2.1009
289260,1.6705,2.1041
289261,1.6714,2.1057
289262,1.6657,2.1057
289263,1.6641,2.0993
289264,1.6641,2.0848
289265,1.6633,2.0606
289266,1.6689,2.0485
289267,1.6665,2.0324
289268,1.6649,2.0195
289269,1.6617,2.0243
289270,1.6705,2.0300
289271,1.6657,2.0558
289272,1.6754,2.0807
289273,1.6641,2.1033
289274,1.6681,2.1049
289275,1.6641,2.1009
289276,1.6641,2.1017
289277,1.6399,2.1017
289278,1.6649,2.1097
289279,1.6794,2.1017
289280,1.6633,2.0936
289281,1.6657,2.0864
289282,1.6415,2.0622
289283,1.6689,2.0485
289284,1.6649,2.0275
289285,1.6649,2.0171
289286,1.6665,2.0243
289287,1.6673,2.0396
289288,1.6649,2.0541
289289,1.6633,2.0840
289290,1.6786,2.1009
289291,1.6673,2.1025
289292,1.6891,2.1009
289293,1.6657,2.1009
289294,1.6633,2.1105
289295,1.6641,2.1089
289296,1.6673,2.1025
289297,1.6649,2.0928
289298,1.6657,2.0622
289299,1.6689,2.0598
289300,1.6633,2.0372
289301,1.6689,2.0243
289302,1.6681,2.0235
289303,1.6488,2.0259
289304,1.6681,2.0412
289305,1.6673,2.0622
289306,1.6681,2.0977
289307,1.6641,2.0912
289308,1.6633,2.1017
289309,1.6714,2.1009
289310,1.6681,2.0622
289311,1.6633,2.1122
289312,1.6649,2.1170
289313,1.6649,2.1017
289314,1.6633,2.1041
289315,1.6689,2.0622
289316,1.6705,2.0501
289317,1.6681,2.0421
289318,1.6681,2.0243
289319,1.6722,2.0284
289320,1.6689,2.0348
289321,1.6665,2.0533
289322,1.6641,2.0622
289323,1.6649,2.1025
289324,1.6641,2.1089
289325,1.6714,2.1049
289326,1.6697,2.1105
289327,1.6633,2.1025
289328,1.6689,2.1138
289329,1.6689,2.1089
289330,1.6657,2.0977
289331,1.6673,2.0815
289332,1.6673,2.0622
289333,1.6689,2.0614
289334,1.6633,2.0300
289335,1.6714,2.0267
289336,1.6633,2.0316
289337,1.6689,2.0388
289338,1.6649,2.0606
289339,1.6681,2.0912
289340,1.6754,2.1041
289341,1.6633,2.1138
289342,1.6673,2.1017
289343,1.6641,2.1009
289344,1.6689,2.1138
289345,1.6649,2.1146
289346,1.6705,2.1025
289347,1.6609,2.0977
289348,1.6641,2.0815
289349,1.6593,2.0558
289350,1.6633,2.0412
289351,1.6722,2.0267
289352,1.6665,2.0316
289353,1.6689,2.0324
289354,1.6641,2.0501
289355,1.6730,2.0622
289356,1.6673,2.0960
289357,1.6673,2.1017
289358,1.6722,2.1073
289359,1.6601,2.1025
289360,1.6649,2.1033
289361,1.6786,2.1146
289362,1.6705,2.1267
289363,1.6689,2.1162
289364,1.6705,2.0928
289365,1.6681,2.0622
289366,1.6714,2.0509
289367,1.6738,2.0396
289368,1.6738,2.0259
289369,1.6689,2.0251
289370,1.6689,2.0380
289371,1.6746,2.0541
289372,1.6681,2.0848
289373,1.6641,2.1017
289374,1.6714,2.1073
289375,1.6657,2.1017
289376,1.6673,2.1073
289377,1.6617,2.1097
289378,1.6714,2.1412
289379,1.6641,2.1105
289380,1.6714,2.1105
289381,1.6705,2.0856
289382,1.6673,2.0622
289383,1.6730,2.0525
289384,1.6770,2.0356
289385,1.6689,2.0292
289386,1.6689,2.0090
289387,1.6689,2.0461
289388,1.6681,2.0622
289389,1.6730,2.0928
289390,1.6714,2.1073
289391,1.6705,2.1097
289392,1.6681,2.1041
289393,1.6673,2.1089
289394,1.6681,2.1146
289395,1.6673,2.1122
289396,1.6705,2.1041
289397,1.6705,2.1017
289398,1.6657,2.0815
289399,1.6681,2.0606
289400,1.6681,2.0461
289401,1.6697,2.0300
289402,1.6722,2.0251
289403,1.6657,2.0292
289404,1.6722,2.0525
289405,1.6738,2.0622
289406,1.6754,2.1001
289407,1.6657,2.1105
289408,1.6714,2.1105
289409,1.6722,2.1025
289410,1.6738,2.1041
289411,1.6714,2.1162
289412,1.6738,2.1146
289413,1.6714,2.1073
289414,1.6673,2.0920
289415,1.6649,2.0622
289416,1.6746,2.0558
289417,1.6681,2.0477
289418,1.6689,2.0010
289419,1.6617,2.0284
289420,1.6738,2.0388
289421,1.6617,2.0606
289422,1.6714,2.0856
289423,1.6705,2.1073
289424,1.6665,2.1275
289425,1.6770,2.1057
289426,1.6673,2.1025
289427,1.6754,2.1146
289428,1.6657,2.1186
289429,1.6722,2.1146
289430,1.6697,2.1033
289431,1.6714,2.0896
289432,1.6689,2.0622
289433,1.6705,2.0501
289434,1.6705,2.0412
289435,1.6746,2.0300
289436,1.6746,2.0372
289437,1.6689,2.0421
289438,1.6770,2.0985
289439,1.6722,2.0904
289440,1.6673,2.1089
289441,1.6681,2.1122
289442,1.6705,2.1049
289443,1.6705,2.1025
289444,1.6705,2.1122
289445,1.6722,2.1130
289446,1.6754,2.1049
289447,1.6762,2.0977
289448,1.6730,2.0622
289449,1.6762,2.0590
289450,1.6657,2.0453
289451,1.6746,2.0243
289452,1.6722,2.0147
289453,1.6802,2.0332
289454,1.6673,2.0445
289455,1.6714,2.0622
289456,1.6689,2.0944
289457,1.6746,2.1057
289458,1.6730,2.1065
289459,1.6738,2.0977
289460,1.6746,2.1025
289461,1.6762,2.1114
289462,1.6770,2.1025
289463,1.6689,2.1017
289464,1.6754,2.0904
289465,1.6722,2.0622
289466,1.6746,2.0541
289467,1.6738,2.0324
289468,1.6714,2.0332
289469,1.6738,2.0251
289470,1.6714,2.0316
289471,1.6657,2.0525
289472,1.6673,2.0896
289473,1.6714,2.1017
289474,1.6649,2.1105
289475,1.6705,2.1234
289476,1.6681,2.0977
289477,1.6722,2.1073
289478,1.6689,2.1122
289479,1.6770,2.0807
289480,1.6705,2.1017
289481,1.6722,2.0848
289482,1.6762,2.0622
289483,1.6770,2.0501
289484,1.6722,2.0292
289485,1.6673,2.0251
289486,1.6738,2.0275
289487,1.6738,2.0404
289488,1.6722,2.0622
289489,1.6689,2.0888
289490,1.6939,2.1025
289491,1.6762,2.0896
289492,1.6738,2.1033
289493,1.6705,2.1033
289494,1.6818,2.1097
289495,1.6705,2.1073
289496,1.6705,2.1033
289497,1.6754,2.0920
289498,1.6705,2.0840
289499,1.6689,2.0598
289500,1.6810,2.0453
289501,1.6730,2.0275
289502,1.6746,2.0243
289503,1.6738,2.0324
289504,1.6633,2.0477
289505,1.6689,2.0622
289506,1.6754,2.1017
289507,1.6730,2.1057
289508,1.6754,2.1073
289509,1.6738,2.0912
289510,1.6738,2.1017
289511,1.6746,2.1146
289512,1.6770,2.1073
289513,1.6762,2.1009
289514,1.6722,2.0912
289515,1.6689,2.0622
289516,1.6746,2.0541
289517,1.6681,2.0380
289518,1.6762,2.0300
289519,1.6746,2.0259
289520,1.6746,2.0380
289521,1.6754,2.0525
289522,1.6738,2.0622
289523,1.6746,2.1025
289524,1.6746,2.1105
289525,1.6681,2.1025
289526,1.6762,2.0993
289527,1.6665,2.1105
289528,1.6673,2.1105
289529,1.6714,2.1073
289530,1.6770,2.0977
289531,1.6778,2.0872
289532,1.6746,2.0622
289533,1.6754,2.0517
289534,1.6681,2.0332
289535,1.6681,2.0300
289536,1.6722,2.0267
289537,1.6730,2.0380
289538,1.6770,2.0622
289539,1.6714,2.0896
289540,1.6722,2.0888
289541,1.6705,2.1041
289542,1.6762,2.1049
289543,1.6770,2.1017
289544,1.6754,2.1105
289545,1.6722,2.1105
289546,1.6770,2.1065
289547,1.6714,2.0936
289548,1.6689,2.0799
289549,1.6705,2.0549
289550,1.6714,2.0469
289551,1.6738,2.0259
289552,1.6730,2.0243
289553,1.6746,2.0316
289554,1.6778,2.0267
289555,1.6705,2.0622
289556,1.6714,2.0968
289557,1.6762,2.1033
289558,1.6746,2.1041
289559,1.6738,2.0960
289560,1.6689,2.1073
289561,1.6585,2.1146
289562,1.6770,2.1138
289563,1.6722,2.1025
289564,1.6794,2.1105
289565,1.6754,2.0622
289566,1.6746,2.0558
289567,1.6754,2.0429
289568,1.6762,2.0259
289569,1.6673,2.0308
289570,1.6738,2.0380
289571,1.6746,2.0541
289572,1.6770,2.0880
289573,1.6641,2.1025
289574,1.6947,2.1089
289575,1.6746,2.1130
289576,1.6722,2.1017
289577,1.6665,2.1105
289578,1.6689,2.1170
289579,1.6738,2.1130
289580,1.6746,2.1065
289581,1.6754,2.0912
289582,1.6722,2.0622
289583,1.6754,2.0622
289584,1.6762,2.0404
289585,1.6762,2.0308
289586,1.6738,2.0332
289587,1.6754,2.0525
289588,1.6730,2.0622
289589,1.6754,2.0960
289590,1.6689,2.1251
289591,1.6705,2.1146
289592,1.6722,2.1275
289593,1.6746,2.1089
289594,1.6762,2.1162
289595,1.6770,2.1186
289596,1.6762,2.1154
289597,1.6738,2.1049
289598,1.6689,2.0799
289599,1.6730,2.0622
289600,1.6947,2.0525
289601,1.6746,2.0388
289602,1.6770,2.0501
289603,1.6722,2.0396
289604,1.6641,2.0501
289605,1.6714,2.0622
289606,1.6746,2.1017
289607,1.6762,2.1138
289608,1.6714,2.1122
289609,1.6681,2.1122
289610,1.6770,2.1105
289611,1.6738,2.1226
289612,1.6746,2.1138
289613,1.6770,2.1041
289614,1.6738,2.0960
289615,1.6714,2.0807
289616,1.6641,2.0622
289617,1.6778,2.0445
289618,1.6754,2.0372
289619,1.6705,2.0356
289620,1.6770,2.0396
289621,1.6657,2.0549
289622,1.6786,2.0848
289623,1.6834,2.1041
289624,1.6762,2.1146
289625,1.6722,2.1122
289626,1.6730,2.1033
289627,1.6778,2.1154
289628,1.6770,2.1186
289629,1.6746,2.1170
289630,1.6770,2.1065
289631,1.6778,2.0936
289632,1.6802,2.0815
289633,1.6762,2.0574
289634,1.6762,2.0421
289635,1.6762,2.0340
289636,1.6762,2.0356
289637,1.6722,2.0477
289638,1.6770,2.0622
289639,1.6746,2.1001
289640,1.6762,2.1105
289641,1.6770,2.1154
289642,1.6842,2.1097
289643,1.6738,2.1065
289644,1.6746,2.1178
289645,1.6762,2.1178
289646,1.6730,2.1146
289647,1.6770,2.1017
289648,1.6762,2.0888
289649,1.6762,2.0622
289650,1.6641,2.0525
289651,1.6762,2.0243
289652,1.6770,2.0348
289653,1.6786,2.0356
289654,1.6786,2.0549
289655,1.6802,2.0622
289656,1.6722,2.1017
289657,1.6746,2.1138
289658,1.6778,2.1138
289659,1.6689,2.1041
289660,1.6818,2.1122
289661,1.6810,2.1178
289662,1.6770,2.1162
289663,1.6762,2.1251
289664,1.6738,2.0848
289665,1.6673,2.0848
289666,1.6770,2.0622
289667,1.6754,2.0219
289668,1.6786,2.0292
289669,1.6746,2.0332
289670,1.6738,2.0429
289671,1.6754,2.0558
289672,1.6754,2.0864
289673,1.6689,2.1089
289674,1.6786,2.1178
289675,1.6794,2.1138
289676,1.6722,2.1073
289677,1.6802,2.1138
289678,1.6762,2.1275
289679,1.6746,2.1194
289680,1.6730,2.1073
289681,1.6778,2.0944
289682,1.6834,2.0799
289683,1.6746,2.0622
289684,1.6762,2.0485
289685,1.6544,2.0372
289686,1.6818,2.0404
289687,1.6705,2.0477
289688,1.6633,2.0622
289689,1.6786,2.1009
289690,1.6786,2.1154
289691,1.6770,2.1162
289692,1.6762,2.1073
289693,1.6778,2.1097
289694,1.6738,2.1234
289695,1.6786,2.1226
289696,1.6794,2.1057
289697,1.6786,2.1057
289698,1.6754,2.0928
289699,1.6762,2.0622
289700,1.6770,2.0509
289701,1.6818,2.0380
289702,1.6762,2.0356
289703,1.6762,2.0388
289704,1.6786,2.0501
289705,1.6754,2.0848
289706,1.6810,2.1017
289707,1.6770,2.1154
289708,1.6746,2.1146
289709,1.6786,2.1114
289710,1.6778,2.1065
289711,1.6794,2.1202
289712,1.6762,2.1299
289713,1.6786,2.1138
289714,1.6770,2.1017
289715,1.6738,2.0928
289716,1.6770,2.0622
289717,1.6722,2.0509
289718,1.6786,2.0421
289719,1.6770,2.0388
289720,1.6802,2.0477
289721,1.6786,2.0622
289722,1.6762,2.0880
289723,1.6746,2.1097
289724,1.6746,2.1154
289725,1.6786,2.1178
289726,1.6754,2.1146
289727,1.6673,2.1146
289728,1.6746,2.1226
289729,1.6746,2.1194
289730,1.6746,2.1186
289731,1.6593,2.0952
289732,1.6778,2.0856
289733,1.6770,2.0606
289734,1.6778,2.0445
289735,1.6754,2.0356
289736,1.6770,2.0324
289737,1.6722,2.0493
289738,1.6738,2.0622
289739,1.6778,2.1001
289740,1.6778,2.0960
289741,1.6818,2.1170
289742,1.6770,2.1170
289743,1.6762,2.1097
289744,1.6786,2.1186
289745,1.6762,2.1234
289746,1.6673,2.1162
289747,1.6705,2.1033
289748,1.6754,2.0936
289749,1.6818,2.0622
289750,1.6770,2.0517
289751,1.6770,2.0404
289752,1.6810,2.0324
289753,1.6770,2.0380
289754,1.6754,2.0541
289755,1.6738,2.0622
289756,1.6738,2.0993
289757,1.6818,2.1138
289758,1.6770,2.1194
289759,1.6834,2.0968
289760,1.6738,2.0977
289761,1.6770,2.1186
289762,1.6770,2.1186
289763,1.6770,2.1097
289764,1.6770,2.0977
289765,1.6754,2.0807
289766,1.6826,2.0622
289767,1.6818,2.0501
289768,1.6770,2.0356
289769,1.6770,2.0380
289770,1.6786,2.0396
289771,1.6754,2.0590
289772,1.6778,2.0815
289773,1.6810,2.1041
289774,1.6778,2.1130
289775,1.6705,2.1138
289776,1.6722,2.1017
289777,1.6705,2.1154
289778,1.6754,2.1218
289779,1.6794,2.1154
289780,1.6818,2.1057
289781,1.6415,2.0896
289782,1.6754,2.0807
289783,1.6818,2.0614
289784,1.6818,2.0396
289785,1.6762,2.0308
289786,1.6786,2.0316
289787,1.6802,2.0453
289788,1.6810,2.0622
289789,1.6794,2.0920
289790,1.6810,2.1105
289791,1.6794,2.1122
289792,1.6786,2.1105
289793,1.6770,2.1073
289794,1.6762,2.1186
289795,1.6762,2.1178
289796,1.6883,2.1114
289797,1.6810,2.1073
289798,1.6786,2.0880
289799,1.6786,2.0622
289800,1.6754,2.0501
289801,1.6834,2.0388
289802,1.6778,2.0292
289803,1.6818,2.0356
289804,1.6802,2.0501
289805,1.6762,2.0622
289806,1.6818,2.1017
289807,1.6818,2.1146
289808,1.6802,2.1146
289809,1.6818,2.1114
289810,1.6810,2.1130
289811,1.6802,2.1251
289812,1.6794,2.1218
289813,1.6851,2.1146
289814,1.6802,2.0985
289815,1.6802,2.0864
289816,1.6818,2.0622
289817,1.6875,2.0501
289818,1.6818,2.0324
289819,1.6786,2.0364
289820,1.6754,2.0187
289821,1.6867,2.0590
289822,1.6786,2.0912
289823,1.6802,2.1105
289824,1.6851,2.1146
289825,1.6802,2.1154
289826,1.6842,2.1057
289827,1.6802,2.1138
289828,1.6834,2.1162
289829,1.6834,2.1017
289830,1.6810,2.1017
289831,1.6762,2.0896
289832,1.6786,2.0622
289833,1.6770,2.0517
289834,1.6786,2.0348
289835,1.6786,2.0243
289836,1.6762,2.0275
289837,1.6786,2.0412
289838,1.6851,2.0558
289839,1.6842,2.0880
289840,1.6818,2.1033
289841,1.6834,2.1017
289842,1.6778,2.1065
289843,1.6818,2.1001
289844,1.6802,2.1105
289845,1.6842,2.1097
289846,1.6810,2.1057
289847,1.6786,2.0912
289848,1.6794,2.0622
289849,1.6818,2.0622
289850,1.6714,2.0453
289851,1.6786,2.0243
289852,1.6786,2.0235
289853,1.6818,2.0267
289854,1.6778,2.0388
289855,1.6834,2.0606
289856,1.6778,2.1154
289857,1.6770,2.1033
289858,1.6818,2.1057
289859,1.6834,2.1017
289860,1.6770,2.1033
289861,1.6794,2.1089
289862,1.6810,2.1057
289863,1.6842,2.1009
289864,1.6851,2.0888
289865,1.6859,2.0622
289866,1.6762,2.0541
289867,1.6794,2.0380
289868,1.6875,2.0251
289869,1.6891,2.0227
289870,1.6786,2.0292
289871,1.6818,2.0477
289872,1.6875,2.0622
289873,1.6867,2.1009
289874,1.6818,2.1017
289875,1.6778,2.1025
289876,1.6842,2.0993
289877,1.6851,2.1025
289878,1.6802,2.1097
289879,1.6818,2.1041
289880,1.6851,2.0993
289881,1.6834,2.0807
289882,1.6786,2.0606
289883,1.6867,2.0501
289884,1.6842,2.0267
289885,1.6883,2.0219
289886,1.6810,2.0292
289887,1.6794,2.0316
289888,1.6818,2.0622
289889,1.6867,2.0872
289890,1.6818,2.0993
289891,1.6786,2.1041
289892,1.6834,2.1017
289893,1.6818,2.1017
289894,1.6810,2.1097
289895,1.6834,2.1065
289896,1.6826,2.1017
289897,1.6851,2.0896
289898,1.6851,2.0622
289899,1.6722,2.0549
289900,1.6786,2.0412
289901,1.6818,2.0275
289902,1.6875,2.0243
289903,1.6851,2.0243
289904,1.6786,2.0421
289905,1.6851,2.0622
289906,1.6818,2.0912
289907,1.6851,2.1065
289908,1.6818,2.1081
289909,1.6891,2.0977
289910,1.6842,2.0960
289911,1.6810,2.1105
289912,1.6875,2.1057
289913,1.6818,2.1275
289914,1.6842,2.0807
289915,1.6810,2.0622
289916,1.6875,2.0517
289917,1.6786,2.0372
289918,1.6859,2.0251
289919,1.6859,2.0219
289920,1.6818,2.0332
289921,1.7004,2.0501
289922,1.6842,2.0622
289923,1.6762,2.0968
289924,1.6818,2.1009
289925,1.6842,2.1017
289926,1.6842,2.0977
289927,1.6802,2.1025
289928,1.6786,2.1057
289929,1.6802,2.0944
289930,1.6786,2.0848
289931,1.6786,2.0622
289932,1.6818,2.0517
289933,1.6714,2.0348
289934,1.6794,2.0195
289935,1.6794,2.0130
289936,1.6842,2.0155
289937,1.6818,2.0259
289938,1.6851,2.0501
289939,1.6851,2.0622
289940,1.6818,2.0928
289941,1.6842,2.0977
289942,1.6778,2.0952
289943,1.6810,2.0904
289944,1.6818,2.0944
289945,1.6818,2.1097
289946,1.6802,2.0944
289947,1.6867,2.0880
289948,1.6875,2.0622
289949,1.6802,2.0332
289950,1.6778,2.0404
289951,1.6818,2.0171
289952,1.6770,2.0219
289953,1.6802,2.0243
289954,1.6770,2.0396
289955,1.6818,2.0614
289956,1.6867,2.0904
289957,1.6851,2.1025
289958,1.6851,2.1041
289959,1.6851,2.0936
289960,1.6834,2.0993
289961,1.6842,2.1049
289962,1.6842,2.1025
289963,1.6842,2.0993
289964,1.6818,2.0622
289965,1.6778,2.0622
289966,1.6834,2.0509
289967,1.6842,2.0372
289968,1.6875,2.0243
289969,1.6883,2.0267
289970,1.6802,2.0300
289971,1.6810,2.0421
289972,1.6859,2.0622
289973,1.6802,2.1001
289974,1.6842,2.1097
289975,1.6810,2.1033
289976,1.6810,2.1017
289977,1.6834,2.1041
289978,1.6818,2.1065
289979,1.6818,2.1041
289980,1.6818,2.0944
289981,1.6802,2.1017
289982,1.6851,2.0622
289983,1.6810,2.0509
289984,1.6842,2.0251
289985,1.6867,2.0243
289986,1.6859,2.0267
289987,1.6842,2.0372
289988,1.6867,2.0558
289989,1.6883,2.0896
289990,1.6899,2.1025
289991,1.6802,2.1065
289992,1.6842,2.1170
289993,1.6867,2.1089
289994,1.6875,2.1065
289995,1.6875,2.1122
289996,1.6891,2.1017
289997,1.6867,2.0920
289998,1.6851,2.0815
289999,1.6875,2.0622
290000,1.6818,2.0380
290001,1.6883,2.0284
290002,1.6859,2.0235
290003,1.6786,2.0284
290004,1.6875,2.0453
290005,1.6883,2.0622
290006,1.6842,2.0960
290007,1.6818,2.1049
290008,1.6851,2.1089
290009,1.6681,2.1049
290010,1.6762,2.1017
290011,1.6851,2.1154
290012,1.6851,2.1105
290013,1.6875,2.1017
290014,1.6851,2.0936
290015,1.6867,2.0622
290016,1.6867,2.0558
290017,1.6810,2.0421
290018,1.6851,2.0316
290019,1.6851,2.0267
290020,1.6851,2.0267
290021,1.6867,2.0501
290022,1.6842,2.0815
290023,1.6754,2.1017
290024,1.6867,2.1073
290025,1.7020,2.1073
290026,1.6891,2.1017
290027,1.6802,2.1105
290028,1.6891,2.1122
290029,1.6802,2.1097
290030,1.6875,2.1017
290031,1.6851,2.0864
290032,1.6818,2.0622
290033,1.6867,2.0509
290034,1.6810,2.0356
290035,1.6875,2.0259
290036,1.6834,2.0324
290037,1.6891,2.0372
290038,1.6842,2.0590
290039,1.6851,2.0896
290040,1.6851,2.1073
290041,1.6794,2.1105
290042,1.6875,2.1025
290043,1.6818,2.1025
290044,1.6818,2.1057
290045,1.6875,2.1138
290046,1.6875,2.1073
290047,1.6794,2.0993
290048,1.6891,2.0864
290049,1.6842,2.0622
290050,1.6867,2.0493
290051,1.6891,2.0300
290052,1.6867,2.0267
290053,1.6834,2.0251
290054,1.6859,2.0501
290055,1.6907,2.0622
290056,1.6875,2.0960
290057,1.6842,2.1105
290058,1.6891,2.1114
290059,1.6883,2.1017
290060,1.6834,2.1057
290061,1.6875,2.1073
290062,1.6883,2.1130
290063,1.6842,2.1065
290064,1.6859,2.0928
290065,1.6907,2.0807
290066,1.6867,2.0533
290067,1.6899,2.0429
290068,1.6875,2.0356
290069,1.6867,2.0292
290070,1.6818,2.0404
290071,1.6867,2.0541
290072,1.6867,2.0815
290073,1.6891,2.1114
290074,1.6875,2.1138
290075,1.6851,2.1122
290076,1.6891,2.1041
290077,1.6923,2.1097
290078,1.6818,2.1186
290079,1.6883,2.1122
290080,1.6867,2.1017
290081,1.6883,2.0888
290082,1.6851,2.0622
290083,1.6891,2.0558
290084,1.6794,2.0243
290085,1.6810,2.0332
290086,1.6899,2.0300
290087,1.6891,2.0429
290088,1.6842,2.0622
290089,1.6883,2.0936
290090,1.6891,2.1146
290091,1.6891,2.1097
290092,1.6810,2.1122
290093,1.6810,2.1041
290094,1.6851,2.1122
290095,1.6875,2.1170
290096,1.6851,2.1122
290097,1.6851,2.1001
290098,1.6883,2.0872
290099,1.6842,2.0622
290100,1.6842,2.0501
290101,1.6851,2.0364
290102,1.6891,2.0324
290103,1.6851,2.0380
290104,1.6883,2.0501
290105,1.6842,2.0622
290106,1.7044,2.1001
290107,1.6867,2.1218
290108,1.6875,2.1138
290109,1.6867,2.1057
290110,1.6891,2.1114
290111,1.6867,2.1194
290112,1.6842,2.1162
290113,1.6842,2.1146
290114,1.6891,2.0848
290115,1.6875,2.0622
290116,1.6867,2.0622
290117,1.6851,2.0453
290118,1.6867,2.0324
290119,1.6842,2.0300
290120,1.6851,2.0412
290121,1.6891,2.0541
290122,1.6883,2.0799
290123,1.6891,2.1073
290124,1.6979,2.1162
290125,1.6891,2.1097
290126,1.6883,2.1025
290127,1.6867,2.1146
290128,1.6859,2.1170
290129,1.6891,2.1146
290130,1.6867,2.1057
290131,1.6867,2.0928
290132,1.6851,2.0872
290133,1.6891,2.0558
290134,1.6891,2.0445
290135,1.6891,2.0259
290136,1.6891,2.0324
290137,1.6883,2.0888
290138,1.6883,2.0622
290139,1.6859,2.0960
290140,1.6891,2.1073
290141,1.6907,2.1194
290142,1.6875,2.1097
290143,1.6883,2.1041
290144,1.6867,2.1122
290145,1.6899,2.1170
290146,1.6859,2.1105
290147,1.6891,2.1025
290148,1.6875,2.0896
290149,1.6883,2.0622
290150,1.6891,2.0501
290151,1.6891,2.0348
290152,1.6867,2.0300
290153,1.6867,2.0380
290154,1.6891,2.0485
290155,1.6859,2.0622
290156,1.6867,2.1009
290157,1.6883,2.1138
290158,1.6867,2.1146
290159,1.6842,2.0912
290160,1.6947,2.1097
290161,1.6818,2.1138
290162,1.6875,2.1130
290163,1.6851,2.1138
290164,1.6899,2.0944
290165,1.6883,2.0848
290166,1.6834,2.0582
290167,1.6891,2.0622
290168,1.6891,2.0332
290169,1.6883,2.0259
290170,1.6883,2.0453
290171,1.6883,2.0558
290172,1.6754,2.0622
290173,1.6883,2.1017
290174,1.6899,2.1089
290175,1.6899,2.1138
290176,1.6851,2.1025
290177,1.6899,2.1122
290178,1.6899,2.1146
290179,1.6907,2.1089
290180,1.6891,2.1025
290181,1.6891,2.0880
290182,1.6891,2.0622
290183,1.6875,2.0517
290184,1.6891,2.0163
290185,1.6891,2.0219
290186,1.6891,2.0364
290187,1.6891,2.0388
290188,1.6891,2.0622
290189,1.6883,2.1001
290190,1.6891,2.1130
290191,1.6875,2.1154
290192,1.6899,2.1130
290193,1.6842,2.1065
290194,1.6891,2.1162
290195,1.6842,2.1146
290196,1.6891,2.1154
290197,1.6899,2.1017
290198,1.6770,2.0912
290199,1.6883,2.0622
290200,1.6891,2.0509
290201,1.6867,2.0388
290202,1.6859,2.0332
290203,1.6859,2.0227
290204,1.6859,2.0509
290205,1.6891,2.0622
290206,1.6875,2.1025
290207,1.6867,2.1154
290208,1.6883,2.1138
290209,1.6867,2.1025
290210,1.6851,2.1122
290211,1.6818,2.1170
290212,1.6875,2.1154
290213,1.6891,2.1122
290214,1.6875,2.0977
290215,1.6851,2.0968
290216,1.6891,2.0614
290217,1.6899,2.0364
290218,1.6891,2.0292
290219,1.6931,2.0380
290220,1.6891,2.0429
290221,1.6867,2.0525
290222,1.6891,2.0848
290223,1.6907,2.1073
290224,1.6883,2.1146
290225,1.6834,2.1122
290226,1.6891,2.1049
290227,1.6875,2.1138
290228,1.6899,2.1170
290229,1.6899,2.1146
290230,1.6891,2.1033
290231,1.6859,2.0944
290232,1.6891,2.0622
290233,1.6891,2.0582
290234,1.6883,2.0412
290235,1.6979,2.0324
290236,1.6947,2.0300
290237,1.6891,2.0429
290238,1.6891,2.0622
290239,1.6883,2.0928
290240,1.6996,2.1097
290241,1.6891,2.1186
290242,1.6834,2.1130
290243,1.6891,2.1073
290244,1.6891,2.1146
290245,1.6891,2.1194
290246,1.6818,2.1146
290247,1.6891,2.1057
290248,1.6899,2.0896
290249,1.7020,2.0622
290250,1.6891,2.0541
290251,1.6947,2.0332
290252,1.6891,2.0227
290253,1.6891,2.0404
290254,1.6891,2.0501
290255,1.6883,2.0622
290256,1.6907,2.1017
290257,1.6915,2.1146
290258,1.6891,2.1234
290259,1.6931,2.1130
290260,1.6907,2.1146
290261,1.6883,2.1154
290262,1.6907,2.1404
290263,1.6931,2.1122
290264,1.6891,2.0993
290265,1.6770,2.0880
290266,1.6907,2.0622
290267,1.6915,2.0259
290268,1.6947,2.0453
290269,1.6891,2.0356
290270,1.6899,2.0412
290271,1.7044,2.0622
290272,1.6915,2.0880
290273,1.6907,2.1105
290274,1.6891,2.1178
290275,1.6915,2.1138
290276,1.6818,2.1114
290277,1.6899,2.1146
290278,1.6891,2.1226
290279,1.6923,2.1146
290280,1.6947,2.0928
290281,1.6971,2.0622
290282,1.6971,2.0622
290283,1.6923,2.0622
290284,1.6947,2.0364
290285,1.6939,2.0300
290286,1.6875,2.0396
290287,1.6899,2.0485
290288,1.6915,2.0622
290289,1.6891,2.0920
290290,1.6947,2.1146
290291,1.6899,2.1194
290292,1.6899,2.1146
290293,1.6947,2.1122
290294,1.6971,2.1186
290295,1.6915,2.1234
290296,1.6859,2.1146
290297,1.6947,2.1065
290298,1.6891,2.1017
290299,1.6891,2.0622
290300,1.6915,2.0558
290301,1.7012,2.0412
290302,1.6939,2.0356
290303,1.6979,2.0412
290304,1.6907,2.0582
290305,1.6931,2.0622
290306,1.6891,2.1073
290307,1.6947,2.1162
290308,1.6689,2.1154
290309,1.6971,2.1122
290310,1.6915,2.1138
290311,1.6891,2.1492
290312,1.6899,2.1202
290313,1.6915,2.1218
290314,1.6931,2.1025
290315,1.6947,2.0815
290316,1.6899,2.0622
290317,1.6875,2.0525
290318,1.6996,2.0412
290319,1.6915,2.0380
290320,1.6915,2.0461
290321,1.6931,2.0622
290322,1.6899,2.0912
290323,1.6947,2.1363
290324,1.6931,2.1218
290325,1.6915,2.1194
290326,1.6971,2.1017
290327,1.6963,2.1275
290328,1.6947,2.1259
290329,1.6899,2.1202
290330,1.7100,2.1073
290331,1.6939,2.0993
290332,1.6923,2.0840
290333,1.6963,2.0622
290334,1.6939,2.0469
290335,1.6931,2.0364
290336,1.6899,2.0429
290337,1.6899,2.0501
290338,1.6931,2.0622
290339,1.6963,2.0977
290340,1.6996,2.1194
290341,1.6979,2.1226
290342,1.6996,2.1154
290343,1.6891,2.1017
290344,1.6931,2.1242
290345,1.6963,2.1226
290346,1.6947,2.1218
290347,1.7004,2.1017
290348,1.7020,2.0928
290349,1.6657,2.0807
290350,1.6915,2.0598
290351,1.6996,2.0477
290352,1.6996,2.0372
290353,1.6979,2.0461
290354,1.6963,2.0582
290355,1.7004,2.0815
290356,1.6996,2.1073
290357,1.6947,2.1283
290358,1.7020,2.1516
290359,1.7036,2.1162
290360,1.6947,2.1170
290361,1.6971,2.1331
290362,1.6996,2.1323
290363,1.7020,2.1363
290364,1.7020,2.1146
290365,1.7020,2.1017
290366,1.7020,2.0872
290367,1.6963,2.0622
290368,1.7012,2.0469
290369,1.6915,2.0501
290370,1.6979,2.0574
290371,1.6979,2.0622
290372,1.6963,2.1057
290373,1.7020,2.1275
290374,1.7052,2.1347
290375,1.7020,2.1315
290376,1.7036,2.1267
290377,1.7044,2.1363
290378,1.6867,2.1452
290379,1.7076,2.1460
290380,1.7060,2.1355
290381,1.7028,2.1234
290382,1.6988,2.1041
290383,1.6979,2.1001
290384,1.7060,2.0622
290385,1.7028,2.0622
290386,1.7036,2.0622
290387,1.7060,2.0832
290388,1.7020,2.0928
290389,1.7068,2.1017
290390,1.7052,2.1162
290391,1.7036,2.1202
290392,1.7004,2.1363
290393,1.7020,2.1412
290394,1.7028,2.1525
290395,1.7020,2.1621
290396,1.7020,2.1718
290397,1.7076,2.1790
290398,1.7036,2.1879
290399,1.7020,2.1976
290400,1.7020,2.2105
290401,1.7020,2.2153
290402,1.7100,2.2185
290403,1.7028,2.2298
290404,1.7020,2.2282
290405,1.7036,2.2427
290406,1.7020,2.2548
290407,1.6923,2.2572
290408,1.7028,2.2645
290409,1.7044,2.2701
290410,1.7012,2.2822
290411,1.7084,2.2846
290412,1.7068,2.2838
290413,1.7004,2.2935
290414,1.6979,2.2959
290415,1.7141,2.2975
290416,1.7100,2.3072
290417,1.7044,2.3007
290418,1.7060,2.3080
290419,1.7076,2.2822
290420,1.7068,2.3080
290421,1.7092,2.3080
290422,1.7108,2.2951
290423,1.7076,2.3136
290424,1.7092,2.3201
290425,1.7149,2.3257
290426,1.7133,2.3209
290427,1.7133,2.3241
290428,1.7149,2.3233
290429,1.7092,2.3305
290430,1.7068,2.3297
290431,1.7100,2.3305
290432,1.7125,2.3330
290433,1.7149,2.3362
290434,1.7149,2.3338
290435,1.7149,2.3386
290436,1.7141,2.3378
290437,1.7076,2.3370
290438,1.7149,2.3418
290439,1.7157,2.3426
290440,1.7157,2.3410
290441,1.7149,2.3426
290442,1.7157,2.3426
290443,1.7157,2.3467
290444,1.7189,2.3467
290445,1.7052,2.3442
290446,1.7133,2.3459
290447,1.7149,2.3491
290448,1.7149,2.3418
290449,1.7149,2.3515
290450,1.7125,2.3523
290451,1.7149,2.3547
290452,1.7133,2.3507
290453,1.7149,2.3515
290454,1.7149,2.3507
290455,1.7125,2.3507
290456,1.7125,2.3475
290457,1.7116,2.3571
290458,1.7149,2.3539
290459,1.7157,2.3523
290460,1.7149,2.3571
290461,1.7125,2.3571
290462,1.7270,2.3547
290463,1.7116,2.3596
290464,1.7141,2.3555
290465,1.7125,2.3596
290466,1.7133,2.3588
290467,1.7108,2.3571
290468,1.7092,2.3596
290469,1.7076,2.3563
290470,1.7092,2.3579
290471,1.7141,2.3596
290472,1.7125,2.3596
290473,1.7060,2.3596
290474,1.7060,2.3579
290475,1.7068,2.3596
290476,1.7092,2.3604
290477,1.7028,2.3563
290478,1.7052,2.3628
290479,1.7141,2.3596
290480,1.7108,2.3604
290481,1.7100,2.3596
290482,1.7068,2.3596
290483,1.7125,2.3588
290484,1.7100,2.3596
290485,1.7100,2.3596
290486,1.7092,2.3604
290487,1.7141,2.3620
290488,1.7108,2.3596
290489,1.7068,2.3596
290490,1.7149,2.3596
290491,1.7076,2.3596
290492,1.7036,2.3596
290493,1.7028,2.3596
290494,1.7036,2.3596
290495,1.7044,2.3596
290496,1.7036,2.3749
290497,1.7060,2.3628
290498,1.7060,2.3596
290499,1.7076,2.3612
290500,1.7044,2.3604
290501,1.7028,2.3555
290502,1.7012,2.3596
290503,1.7044,2.3596
290504,1.7028,2.3596
290505,1.7060,2.3636
290506,1.7012,2.3636
290507,1.7020,2.3612
290508,1.7052,2.3612
290509,1.7020,2.3612
290510,1.7020,2.3588
290511,1.7020,2.3588
290512,1.7036,2.3725
290513,1.7020,2.3596
290514,1.7060,2.3596
290515,1.7060,2.3563
290516,1.7044,2.3684
290517,1.7004,2.3604
290518,1.6971,2.3596
290519,1.7020,2.3588
290520,1.6996,2.3555
290521,1.6971,2.3596
290522,1.7028,2.3596
290523,1.7020,2.3588
290524,1.7020,2.3596
290525,1.6947,2.3507
290526,1.7012,2.3571
290527,1.7020,2.3588
290528,1.7004,2.3579
290529,1.7020,2.3588
290530,1.7044,2.3588
290531,1.7020,2.3555
290532,1.6979,2.3571
290533,1.7012,2.3596
290534,1.7020,2.3604
290535,1.6979,2.3596
290536,1.6996,2.3555
290537,1.6996,2.3571
290538,1.6802,2.3579
290539,1.7012,2.3596
290540,1.6979,2.3571
290541,1.6979,2.3612
290542,1.6963,2.3596
290543,1.6947,2.3588
290544,1.7020,2.3596
290545,1.7012,2.3539
290546,1.6971,2.3555
290547,1.6979,2.3579
290548,1.6963,2.3555
290549,1.6963,2.3579
290550,1.7020,2.3571
290551,1.6979,2.3547
290552,1.6971,2.3596
290553,1.7020,2.3579
290554,1.6979,2.3177
290555,1.6947,2.3571
290556,1.7004,2.3588
290557,1.6947,2.3563
290558,1.6971,2.3555
290559,1.6931,2.3571
290560,1.7020,2.3563
290561,1.6979,2.3547
290562,1.7028,2.3579
290563,1.6971,2.3539
290564,1.7012,2.3507
290565,1.7020,2.3539
290566,1.6996,2.3547
290567,1.7020,2.3547
290568,1.6899,2.3547
290569,1.6971,2.3547
290570,1.7020,2.3571
290571,1.6979,2.3563
290572,1.6971,2.3684
290573,1.6947,2.3579
290574,1.6996,2.3588
290575,1.6931,2.3539
290576,1.6963,2.3539
290577,1.7004,2.3579
290578,1.6979,2.3612
290579,1.7020,2.3515
290580,1.6963,2.3555
290581,1.6947,2.3507
290582,1.6979,2.3596
290583,1.6988,2.3829
290584,1.7020,2.3563
290585,1.6996,2.3596
290586,1.7004,2.3555
290587,1.6931,2.3571
290588,1.7020,2.3596
290589,1.6988,2.3515
290590,1.7020,2.3547
290591,1.6971,2.3394
290592,1.6963,2.3539
290593,1.7004,2.3539
290594,1.6947,2.3539
290595,1.7125,2.3547
290596,1.6947,2.3523
290597,1.7004,2.3571
290598,1.6971,2.3515
290599,1.6963,2.3499
290600,1.6979,2.3563
290601,1.6891,2.3467
290602,1.6963,2.3523
290603,1.6851,2.3571
290604,1.6971,2.3483
290605,1.6971,2.3539
290606,1.6963,2.3547
290607,1.6979,2.3571
290608,1.6971,2.3563
290609,1.6947,2.3571
290610,1.6996,2.3555
290611,1.6931,2.3555
290612,1.6947,2.3555
290613,1.6915,2.3571
290614,1.6971,2.3588
290615,1.6947,2.3515
290616,1.6947,2.3563
290617,1.7012,2.3539
290618,1.6996,2.3531
290619,1.6988,2.3539
290620,1.7020,2.3555
290621,1.6971,2.3483
290622,1.6931,2.3571
290623,1.6939,2.3805
290624,1.6947,2.3596
290625,1.6979,2.3523
290626,1.6979,2.3539
290627,1.6988,2.3523
290628,1.6988,2.3491
290629,1.6947,2.3596
290630,1.6971,2.3515
290631,1.7020,2.3547
290632,1.6996,2.3539
290633,1.6971,2.3555
290634,1.6947,2.3539
290635,1.6971,2.3523
290636,1.6947,2.3523
290637,1.6996,2.3547
290638,1.6979,2.3571
290639,1.6915,2.3459
290640,1.6979,2.3378
290641,1.6996,2.3539
290642,1.6963,2.3563
290643,1.6971,2.3547
290644,1.6915,2.3523
290645,1.6947,2.3547
290646,1.6931,2.3829
290647,1.6899,2.3523
290648,1.7004,2.3555
290649,1.7004,2.3555
290650,1.6939,2.3539
290651,1.6963,2.3571
290652,1.6988,2.3571
290653,1.6963,2.3547
290654,1.6979,2.3555
290655,1.6907,2.3668
290656,1.6963,2.3563
290657,1.6979,2.3571
290658,1.6971,2.3571
290659,1.6947,2.3539
290660,1.6996,2.3539
290661,1.6979,2.3483
290662,1.6971,2.3636
290663,1.6915,2.3547
290664,1.6979,2.3523
290665,1.6996,2.3571
290666,1.6963,2.3531
290667,1.6931,2.3346
290668,1.6963,2.3555
290669,1.6996,2.3539
290670,1.6963,2.3539
290671,1.6996,2.3547
290672,1.6996,2.3555
290673,1.7020,2.3563
290674,1.6939,2.3563
290675,1.6939,2.3555
290676,1.6939,2.3515
290677,1.6915,2.3531
290678,1.6923,2.3579
290679,1.6996,2.3547
290680,1.7004,2.3523
290681,1.7004,2.3579
290682,1.6996,2.3596
290683,1.6988,2.3547
290684,1.7020,2.3571
290685,1.6963,2.3539
290686,1.6979,2.3547
290687,1.7012,2.3523
290688,1.7004,2.3596
290689,1.6963,2.3547
290690,1.6939,2.3563
290691,1.6971,2.3539
290692,1.6979,2.3555
290693,1.7012,2.3507
290694,1.6947,2.3547
290695,1.6979,2.3588
290696,1.6963,2.3571
290697,1.6979,2.3539
290698,1.6947,2.3571
290699,1.6955,2.3547
290700,1.6915,2.3523
290701,1.6996,2.3596
290702,1.6963,2.3555
290703,1.6947,2.3523
290704,1.6947,2.3571
290705,1.6931,2.3507
290706,1.6963,2.3563
290707,1.6931,2.3523
290708,1.7012,2.3555
290709,1.6947,2.3547
290710,1.6971,2.3571
290711,1.6963,2.3539
290712,1.6979,2.3555
290713,1.6996,2.3579
290714,1.6931,2.3547
290715,1.6963,2.3571
290716,1.6963,2.3539
290717,1.6891,2.3555
290718,1.7020,2.3547
290719,1.6979,2.3555
290720,1.6996,2.3571
290721,1.6971,2.3579
290722,1.6979,2.3588
290723,1.6931,2.3442
290724,1.6979,2.3515
290725,1.6947,2.3555
290726,1.6996,2.3507
290727,1.7012,2.3652
290728,1.6947,2.3571
290729,1.6971,2.3588
290730,1.7012,2.3507
290731,1.6979,2.3571
290732,1.7004,2.3426
290733,1.6939,2.3555
290734,1.6971,2.3547
290735,1.7012,2.3555
290736,1.6979,2.3571
290737,1.6923,2.3571
290738,1.6996,2.3555
290739,1.7028,2.3297
290740,1.6971,2.3547
290741,1.6988,2.3588
290742,1.6979,2.3571
290743,1.6996,2.3579
290744,1.6988,2.3451
290745,1.6971,2.3579
290746,1.7012,2.3547
290747,1.7020,2.3579
290748,1.7036,2.3579
290749,1.7060,2.3539
290750,1.7012,2.3571
290751,1.7028,2.3571
290752,1.7028,2.3588
290753,1.7004,2.3579
290754,1.6988,2.3596
290755,1.7004,2.3555
290756,1.7004,2.3539
290757,1.7020,2.3588
290758,1.6891,2.3555
290759,1.6996,2.3588
290760,1.7012,2.3596
290761,1.7004,2.3563
290762,1.6979,2.3547
290763,1.6996,2.3588
290764,1.6963,2.3571
290765,1.7044,2.3547
290766,1.7060,2.3547
290767,1.7004,2.3588
290768,1.6996,2.3555
290769,1.7004,2.3579
290770,1.7036,2.3555
290771,1.6891,2.3588
290772,1.7028,2.3491
290773,1.7020,2.3579
290774,1.7012,2.3523
290775,1.7028,2.3596
290776,1.7060,2.3571
290777,1.7028,2.3588
290778,1.7052,2.3547
290779,1.7036,2.3579
290780,1.7020,2.3596
290781,1.7020,2.3579
290782,1.7036,2.3571
290783,1.7020,2.3563
290784,1.7020,2.3596
290785,1.7020,2.3434
290786,1.6891,2.3571
290787,1.7044,2.3555
290788,1.7004,2.3410
290789,1.7076,2.3588
290790,1.7060,2.3596
290791,1.7044,2.3588
290792,1.7020,2.3571
290793,1.7020,2.3555
290794,1.7020,2.3588
290795,1.7068,2.3579
290796,1.7052,2.3596
290797,1.7020,2.3579
290798,1.7020,2.3700
290799,1.7116,2.3579
290800,1.6979,2.3588
290801,1.7012,2.3596
290802,1.7004,2.3588
290803,1.7028,2.3604
290804,1.7028,2.3596
290805,1.7012,2.3555
290806,1.7020,2.3596
290807,1.7028,2.3588
290808,1.7020,2.3596
290809,1.7020,2.3579
290810,1.7020,2.3596
290811,1.7004,2.3579
290812,1.7036,2.3612
290813,1.7068,2.3588
290814,1.7028,2.3596
290815,1.7044,2.3604
290816,1.7044,2.3523
290817,1.7012,2.3620
290818,1.7020,2.3596
290819,1.7036,2.3620
290820,1.7076,2.3628
290821,1.7092,2.3596
290822,1.7044,2.3596
290823,1.7068,2.3596
290824,1.7060,2.3588
290825,1.7020,2.3596
290826,1.7068,2.3596
290827,1.7020,2.3620
290828,1.7133,2.3620
290829,1.7076,2.3571
290830,1.7133,2.3596
290831,1.7181,2.3596
290832,1.7012,2.3604
290833,1.7012,2.3604
290834,1.7028,2.3604
290835,1.7052,2.3596
290836,1.7020,2.3612
290837,1.6996,2.3692
290838,1.7068,2.3676
290839,1.7092,2.3596
290840,1.7028,2.3596
290841,1.7020,2.3596
290842,1.7020,2.3612
290843,1.7044,2.3612
290844,1.7020,2.3612
290845,1.7068,2.3596
290846,1.7044,2.3604
290847,1.7044,2.3596
290848,1.7076,2.3588
290849,1.7004,2.3612
290850,1.7020,2.3596
290851,1.7028,2.3620
290852,1.7060,2.3620
290853,1.7036,2.3652
290854,1.7076,2.3604
290855,1.7100,2.3596
290856,1.7044,2.3596
290857,1.7149,2.3612
290858,1.7020,2.3612
290859,1.7060,2.3604
290860,1.7036,2.3612
290861,1.7149,2.3596
290862,1.7044,2.3612
290863,1.7044,2.3604
290864,1.7100,2.3620
290865,1.7020,2.3596
290866,1.7068,2.3596
290867,1.7044,2.3596
290868,1.7028,2.3596
290869,1.7028,2.3596
290870,1.7036,2.3612
290871,1.7028,2.3579
290872,1.7036,2.3604
290873,1.7076,2.3902
290874,1.7044,2.3636
290875,1.7044,2.3596
290876,1.7060,2.3604
290877,1.6947,2.3596
290878,1.7229,2.3604
290879,1.7076,2.3628
290880,1.7020,2.3644
290881,1.7092,2.3628
290882,1.7020,2.3604
290883,1.7044,2.3604
290884,1.7036,2.3596
290885,1.7020,2.3596
290886,1.7020,2.3636
290887,1.7060,2.3620
290888,1.7020,2.3636
290889,1.7036,2.3523
290890,1.7076,2.3620
290891,1.7060,2.3596
290892,1.7100,2.3620
290893,1.7060,2.3596
290894,1.7044,2.3620
290895,1.7100,2.3612
290896,1.7060,2.3620
290897,1.7060,2.3652
290898,1.7100,2.3596
290899,1.7020,2.3588
290900,1.7076,2.3636
290901,1.7068,2.3644
290902,1.7060,2.3620
290903,1.7084,2.3620
290904,1.7100,2.3620
290905,1.7020,2.3579
290906,1.7020,2.3644
290907,1.7068,2.3620
290908,1.7060,2.3362
290909,1.7052,2.3612
290910,1.7060,2.3612
290911,1.7028,2.3620
290912,1.7028,2.3636
290913,1.7076,2.3853
290914,1.7173,2.3684
290915,1.7068,2.3620
290916,1.7028,2.3612
290917,1.7076,2.3636
290918,1.7028,2.3628
290919,1.7076,2.3652
290920,1.7076,2.3604
290921,1.7076,2.3644
290922,1.7044,2.3636
290923,1.7052,2.3604
290924,1.6996,2.3579
290925,1.7020,2.3596
290926,1.7068,2.3362
290927,1.7100,2.3636
290928,1.7092,2.3620
290929,1.7068,2.3612
290930,1.7068,2.3636
290931,1.7036,2.3652
290932,1.7036,2.3644
290933,1.7068,2.3684
290934,1.7068,2.3644
290935,1.7076,2.3604
290936,1.7076,2.3636
290937,1.7173,2.3620
290938,1.7020,2.3628
290939,1.7036,2.3725
290940,1.7076,2.3539
290941,1.7076,2.3620
290942,1.7020,2.3829
290943,1.7133,2.3620
290944,1.7100,2.3620
290945,1.7092,2.3636
290946,1.7092,2.3620
290947,1.7076,2.3636
290948,1.7044,2.3588
290949,1.7060,2.3668
290950,1.7068,2.3620
290951,1.7036,2.3612
290952,1.7149,2.3636
290953,1.7020,2.3571
290954,1.7036,2.3636
290955,1.7020,2.3644
290956,1.7052,2.3636
290957,1.7052,2.3596
290958,1.7060,2.3539
290959,1.7036,2.3628
290960,1.7092,2.3612
290961,1.7028,2.3620
290962,1.7036,2.3620
290963,1.7044,2.3668
290964,1.7068,2.3644
290965,1.7060,2.3596
290966,1.7100,2.3700
290967,1.7036,2.3596
290968,1.7100,2.3636
290969,1.7052,2.3644
290970,1.7060,2.3644
290971,1.7052,2.3620
290972,1.7020,2.3515
290973,1.7052,2.3612
290974,1.7092,2.3636
290975,1.7060,2.3604
290976,1.7076,2.3604
290977,1.7068,2.3644
290978,1.7076,2.3620
290979,1.7044,2.3604
290980,1.7108,2.3668
290981,1.7108,2.3636
290982,1.7052,2.3644
290983,1.7076,2.3571
290984,1.7076,2.3636
290985,1.7068,2.3612
290986,1.7100,2.3628
290987,1.7044,2.3644
290988,1.7092,2.3636
290989,1.7076,2.3684
290990,1.7060,2.3620
290991,1.7092,2.3636
290992,1.7100,2.3684
290993,1.7044,2.3652
290994,1.7060,2.3684
290995,1.7125,2.3644
290996,1.7100,2.3604
290997,1.7076,2.3612
290998,1.7108,2.3644
290999,1.7125,2.3684
291000,1.7068,2.3652
291001,1.7125,2.3612
291002,1.7092,2.3652
291003,1.7044,2.3620
291004,1.7044,2.3668
291005,1.7133,2.3636
291006,1.7108,2.3628
291007,1.7125,2.3668
291008,1.7125,2.3596
291009,1.7084,2.3644
291010,1.7044,2.3668
291011,1.7076,2.3596
291012,1.7044,2.3652
291013,1.7060,2.3652
291014,1.7141,2.3612
291015,1.7052,2.3652
291016,1.7125,2.3644
291017,1.7100,2.3628
291018,1.7092,2.3604
291019,1.7020,2.3612
291020,1.7229,2.3612
291021,1.7149,2.3620
291022,1.7060,2.3620
291023,1.7125,2.3378
291024,1.7133,2.3676
291025,1.7149,2.3813
291026,1.7133,2.3684
291027,1.7068,2.3636
291028,1.7092,2.3652
291029,1.7100,2.3652
291030,1.7060,2.3620
291031,1.7133,2.3668
291032,1.7108,2.3596
291033,1.7165,2.3676
291034,1.7092,2.3636
291035,1.7060,2.3668
291036,1.7108,2.3636
291037,1.7141,2.3620
291038,1.7012,2.3652
291039,1.7149,2.3668
291040,1.7157,2.3596
291041,1.7133,2.3676
291042,1.7044,2.3652
291043,1.7141,2.3692
291044,1.7133,2.3644
291045,1.7036,2.3676
291046,1.7076,2.3765
291047,1.7060,2.3596
291048,1.7068,2.3700
291049,1.7108,2.3644
291050,1.7149,2.3684
291051,1.7133,2.3652
291052,1.7092,2.3620
291053,1.7133,2.3652
291054,1.7125,2.3652
291055,1.7044,2.3588
291056,1.7116,2.3684
291057,1.7020,2.3668
291058,1.7068,2.3676
291059,1.7125,2.3523
291060,1.7108,2.3676
291061,1.7116,2.3628
291062,1.7100,2.3684
291063,1.7173,2.3676
291064,1.7060,2.3700
291065,1.7092,2.3700
291066,1.7108,2.3684
291067,1.7036,2.3692
291068,1.7141,2.3668
291069,1.6988,2.3684
291070,1.7116,2.3620
291071,1.7125,2.3652
291072,1.7100,2.3652
291073,1.7076,2.3652
291074,1.7084,2.3652
291075,1.7060,2.3700
291076,1.7076,2.3684
291077,1.7092,2.3620
291078,1.7060,2.3612
291079,1.7116,2.3700
291080,1.7108,2.3588
291081,1.7108,2.3636
291082,1.7020,2.3700
291083,1.7133,2.3684
291084,1.7157,2.3668
291085,1.7084,2.3692
291086,1.7076,2.3620
291087,1.7116,2.3636
291088,1.7068,2.3684
291089,1.7068,2.3515
291090,1.7108,2.3684
291091,1.7108,2.3684
291092,1.7068,2.3644
291093,1.7149,2.3668
291094,1.7108,2.3676
291095,1.7076,2.3684
291096,1.7149,2.3652
291097,1.7076,2.3652
291098,1.7149,2.3652
291099,1.7141,2.3676
291100,1.7125,2.3676
291101,1.7100,2.3652
291102,1.7100,2.3749
291103,1.7092,2.3684
291104,1.7092,2.3668
291105,1.7141,2.3507
291106,1.7068,2.3620
291107,1.7133,2.3676
291108,1.7133,2.3636
291109,1.7116,2.3700
291110,1.7149,2.3604
291111,1.7076,2.3652
291112,1.7036,2.3676
291113,1.7125,2.3684
291114,1.7125,2.3765
291115,1.7100,2.3652
291116,1.7108,2.3676
291117,1.7133,2.3652
291118,1.7141,2.3676
291119,1.7092,2.3765
291120,1.7076,2.3684
291121,1.7133,2.3338
291122,1.7141,2.3716
291123,1.7108,2.3676
291124,1.7278,2.3644
291125,1.7133,2.3684
291126,1.7068,2.3668
291127,1.7100,2.3636
291128,1.7092,2.3684
291129,1.7092,2.3700
291130,1.7108,2.3644
291131,1.7108,2.3684
291132,1.7100,2.3491
291133,1.7076,2.3813
291134,1.7149,2.3652
291135,1.7133,2.3668
291136,1.7108,2.3684
291137,1.7108,2.3652
291138,1.7076,2.3684
291139,1.7133,2.3426
291140,1.7149,2.3676
291141,1.7108,2.3684
291142,1.7141,2.3636
291143,1.7149,2.3708
291144,1.7141,2.3620
291145,1.7181,2.3636
291146,1.7108,2.3644
291147,1.7141,2.3725
291148,1.7149,2.3628
291149,1.7108,2.3700
291150,1.7068,2.3668
291151,1.7133,2.3773
291152,1.7108,2.3708
291153,1.7149,2.3700
291154,1.7100,2.3700
291155,1.7149,2.3692
291156,1.7197,2.3620
291157,1.7197,2.3684
291158,1.7133,2.3676
291159,1.7100,2.3354
291160,1.7149,2.3684
291161,1.7108,2.3668
291162,1.7141,2.3708
291163,1.7100,2.3700
291164,1.7149,2.3708
291165,1.7149,2.3716
291166,1.7141,2.3636
291167,1.7108,2.3708
291168,1.7157,2.3692
291169,1.7173,2.3708
291170,1.7133,2.3684
291171,1.7100,2.3862
291172,1.7173,2.3692
291173,1.7100,2.3652
291174,1.7149,2.3684
291175,1.7108,2.3725
291176,1.7108,2.3700
291177,1.7125,2.3708
291178,1.7157,2.3700
291179,1.7125,2.3700
291180,1.7149,2.3676
291181,1.7149,2.3708
291182,1.7133,2.3676
291183,1.7108,2.3716
291184,1.7149,2.3716
291185,1.7157,2.3668
291186,1.7116,2.3708
291187,1.7149,2.3725
291188,1.7149,2.3716
291189,1.7133,2.3708
291190,1.7036,2.3741
291191,1.7149,2.3716
291192,1.7149,2.3684
291193,1.7141,2.3652
291194,1.7125,2.3700
291195,1.7157,2.3660
291196,1.7149,2.3612
291197,1.7108,2.3692
291198,1.7125,2.3708
291199,1.7125,2.3676
291200,1.7229,2.3644
291201,1.7133,2.3716
291202,1.7149,2.3684
291203,1.7133,2.3700
291204,1.7149,2.3684
291205,1.7100,2.3781
291206,1.7149,2.3708
291207,1.7100,2.3700
291208,1.7149,2.3700
291209,1.7125,2.3676
291210,1.7020,2.3700
291211,1.7149,2.3716
291212,1.7157,2.3700
291213,1.7141,2.3716
291214,1.7149,2.3708
291215,1.7149,2.3781
291216,1.7165,2.3725
291217,1.7149,2.3708
291218,1.7149,2.3708
291219,1.7149,2.3725
291220,1.7108,2.3684
291221,1.7157,2.3451
291222,1.7157,2.3676
291223,1.7149,2.3716
291224,1.7149,2.3596
291225,1.7197,2.3708
291226,1.7173,2.3676
291227,1.7149,2.3716
291228,1.7100,2.3684
291229,1.7141,2.3708
291230,1.7149,2.3684
291231,1.7302,2.3668
291232,1.7044,2.3725
291233,1.7149,2.3684
291234,1.7173,2.3700
291235,1.7133,2.3708
291236,1.7157,2.3684
291237,1.7149,2.3700
291238,1.7149,2.3676
291239,1.7133,2.3733
291240,1.7173,2.3716
291241,1.7149,2.3700
291242,1.7157,2.3684
291243,1.7165,2.3684
291244,1.7157,2.3700
291245,1.7197,2.3708
291246,1.7165,2.3716
291247,1.7149,2.3741
291248,1.7197,2.3716
291249,1.7157,2.3725
291250,1.7149,2.3708
291251,1.7149,2.3741
291252,1.7173,2.3725
291253,1.7133,2.3708
291254,1.7141,2.3700
291255,1.7141,2.3692
291256,1.7165,2.3716
291257,1.7149,2.3684
291258,1.7149,2.3684
291259,1.7165,2.3733
291260,1.7237,2.3708
291261,1.7173,2.3652
291262,1.7149,2.3692
291263,1.7149,2.3716
291264,1.7125,2.3716
291265,1.7141,2.3708
291266,1.7149,2.3700
291267,1.7149,2.3684
291268,1.7149,2.3523
291269,1.7189,2.3773
291270,1.7149,2.3716
291271,1.7157,2.3708
291272,1.7133,2.3716
291273,1.7157,2.3716
291274,1.7157,2.3684
291275,1.7173,2.3652
291276,1.7125,2.3716
291277,1.7165,2.3684
291278,1.7165,2.3725
291279,1.7149,2.3716
291280,1.7020,2.3676
291281,1.7173,2.3668
291282,1.7149,2.3684
291283,1.7149,2.3716
291284,1.7165,2.3692
291285,1.7149,2.3684
291286,1.7173,2.3700
291287,1.7149,2.3700
291288,1.7173,2.3829
291289,1.7278,2.3676
291290,1.7068,2.3700
291291,1.7149,2.3676
291292,1.7125,2.3716
291293,1.7197,2.3628
291294,1.7358,2.3676
291295,1.7229,2.3684
291296,1.7165,2.3652
291297,1.7149,2.3676
291298,1.7149,2.3684
291299,1.7189,2.3700
291300,1.7149,2.3708
291301,1.7181,2.3700
291302,1.7173,2.3668
291303,1.7165,2.3684
291304,1.7149,2.3628
291305,1.7165,2.3684
291306,1.7149,2.3700
291307,1.7141,2.3652
291308,1.7149,2.3797
291309,1.7189,2.3636
291310,1.7149,2.3684
291311,1.7189,2.3684
291312,1.7149,2.3708
291313,1.7173,2.3668
291314,1.7181,2.3644
291315,1.7173,2.3668
291316,1.7149,2.3676
291317,1.7318,2.3620
291318,1.7205,2.3652
291319,1.7149,2.3668
291320,1.7141,2.3684
291321,1.7157,2.3612
291322,1.7149,2.3644
291323,1.7237,2.3636
291324,1.7173,2.3684
291325,1.7173,2.3644
291326,1.7149,2.3636
291327,1.7197,2.3684
291328,1.7181,2.3644
291329,1.7157,2.3652
291330,1.7181,2.3612
291331,1.7189,2.3386
291332,1.7157,2.3628
291333,1.7149,2.3620
291334,1.7197,2.3620
291335,1.7149,2.3620
291336,1.7181,2.3797
291337,1.7149,2.3620
291338,1.7165,2.3612
291339,1.7197,2.3612
291340,1.7189,2.3837
291341,1.7173,2.3644
291342,1.7205,2.3636
291343,1.7221,2.3644
291344,1.7157,2.3596
291345,1.7173,2.3668
291346,1.7157,2.3620
291347,1.7221,2.3604
291348,1.7173,2.3604
291349,1.7197,2.3604
291350,1.7366,2.3612
291351,1.7205,2.3620
291352,1.7189,2.3596
291353,1.7165,2.3596
291354,1.7173,2.3636
291355,1.7157,2.3596
291356,1.7197,2.3620
291357,1.7197,2.3596
291358,1.7157,2.3579
291359,1.7149,2.3596
291360,1.7165,2.3596
291361,1.7173,2.3555
291362,1.7334,2.3596
291363,1.7149,2.3596
291364,1.7245,2.3604
291365,1.7189,2.3676
291366,1.7181,2.3596
291367,1.7205,2.3596
291368,1.7237,2.3571
291369,1.7205,2.3571
291370,1.7157,2.3588
291371,1.7157,2.3596
291372,1.7221,2.3596
291373,1.7189,2.3596
291374,1.7189,2.3539
291375,1.7205,2.3596
291376,1.7173,2.3596
291377,1.7189,2.3555
291378,1.7173,2.3604
291379,1.7205,2.3579
291380,1.7149,2.3555
291381,1.7237,2.3588
291382,1.7205,2.3588
291383,1.7205,2.3596
291384,1.7173,2.3523
291385,1.7253,2.3547
291386,1.7197,2.3555
291387,1.7221,2.3555
291388,1.7262,2.3563
291389,1.7205,2.3563
291390,1.7237,2.3507
291391,1.7237,2.3579
291392,1.7237,2.3588
291393,1.7262,2.3555
291394,1.7278,2.3539
291395,1.7253,2.3579
291396,1.7197,2.3579
291397,1.7205,2.3596
291398,1.7205,2.3515
291399,1.7205,2.3555
291400,1.7278,2.3491
291401,1.7253,2.3579
291402,1.7173,2.3555
291403,1.7205,2.3579
291404,1.7237,2.3555
291405,1.7221,2.3571
291406,1.7334,2.3588
291407,1.7165,2.3571
291408,1.7245,2.3579
291409,1.7229,2.3523
291410,1.7237,2.3596
291411,1.7205,2.3523
291412,1.7294,2.3547
291413,1.7286,2.3563
291414,1.7253,2.3475
291415,1.7318,2.3563
291416,1.7262,2.3523
291417,1.7237,2.3547
291418,1.7237,2.3571
291419,1.7253,2.3475
291420,1.7262,2.3596
291421,1.7262,2.3588
291422,1.7270,2.3588
291423,1.7286,2.3555
291424,1.7262,2.3571
291425,1.7197,2.3588
291426,1.7237,2.3596
291427,1.7270,2.3588
291428,1.7253,2.3555
291429,1.7237,2.3596
291430,1.7262,2.3571
291431,1.7253,2.3596
291432,1.7270,2.3588
291433,1.7253,2.3579
291434,1.7229,2.3596
291435,1.7245,2.3596
291436,1.7407,2.3604
291437,1.7205,2.3596
291438,1.7245,2.3612
291439,1.7205,2.3612
291440,1.7286,2.3596
291441,1.7278,2.3596
291442,1.7270,2.3620
291443,1.7318,2.3636
291444,1.7326,2.3620
291445,1.7133,2.3636
291446,1.7237,2.3636
291447,1.7326,2.3636
291448,1.7318,2.3636
291449,1.7278,2.3588
291450,1.7302,2.3684
291451,1.7366,2.3547
291452,1.7262,2.3676
291453,1.7294,2.3612
291454,1.7262,2.3668
291455,1.7326,2.3684
291456,1.7253,2.3620
291457,1.7262,2.3668
291458,1.7253,2.3692
291459,1.7270,2.3676
291460,1.7253,2.3700
291461,1.7302,2.3676
291462,1.7286,2.3716
291463,1.7294,2.3765
291464,1.7334,2.3676
291465,1.7318,2.3660
291466,1.7310,2.3708
291467,1.7334,2.3725
291468,1.7334,2.3684
291469,1.7318,2.3749
291470,1.7294,2.3700
291471,1.7326,2.3684
291472,1.7326,2.3684
291473,1.7334,2.3652
291474,1.7310,2.3668
291475,1.7350,2.3700
291476,1.7334,2.3652
291477,1.7407,2.3708
291478,1.7294,2.3684
291479,1.7294,2.3708
291480,1.7294,2.3716
291481,1.7366,2.3733
291482,1.7302,2.3733
291483,1.7318,2.3716
291484,1.7286,2.3765
291485,1.7334,2.3749
291486,1.7552,2.3708
291487,1.7350,2.3749
291488,1.7374,2.3700
291489,1.7318,2.3749
291490,1.7334,2.3733
291491,1.7302,2.3716
291492,1.7294,2.3716
291493,1.7286,2.3708
291494,1.7286,2.3716
291495,1.7116,2.3716
291496,1.7318,2.3725
291497,1.7358,2.3725
291498,1.7326,2.3716
291499,1.7318,2.3733
291500,1.7310,2.3725
291501,1.7326,2.3725
291502,1.7278,2.3716
291503,1.7318,2.3725
291504,1.7278,2.3749
291505,1.7076,2.3716
291506,1.7318,2.3725
291507,1.7318,2.3684
291508,1.7278,2.3644
291509,1.7278,2.3716
291510,1.7350,2.3725
291511,1.7318,2.3741
291512,1.7382,2.3733
291513,1.7326,2.3716
291514,1.7350,2.3749
291515,1.7334,2.3741
291516,1.7350,2.3700
291517,1.7334,2.3725
291518,1.7326,2.3741
291519,1.7366,2.3741
291520,1.7318,2.3741
291521,1.7358,2.3757
291522,1.7390,2.3853
291523,1.7334,2.3781
291524,1.7390,2.3757
291525,1.7318,2.3781
291526,1.7334,2.3773
291527,1.7302,2.3845
291528,1.7334,2.3765
291529,1.7318,2.3765
291530,1.7350,2.3894
291531,1.7358,2.3829
291532,1.7334,2.3781
291533,1.7358,2.3749
291534,1.7302,2.3781
291535,1.7334,2.3781
291536,1.7350,2.3757
291537,1.7374,2.3797
291538,1.7334,2.3700
291539,1.7358,2.3837
291540,1.7382,2.3853
291541,1.7318,2.3773
291542,1.7350,2.3813
291543,1.7382,2.3749
291544,1.7390,2.3829
291545,1.7390,2.3797
291546,1.7358,2.3845
291547,1.7390,2.3837
291548,1.7382,2.3845
291549,1.7399,2.3845
291550,1.7390,2.3845
291551,1.7487,2.3862
291552,1.7382,2.3805
291553,1.7302,2.3862
291554,1.7415,2.3870
291555,1.7390,2.3870
291556,1.7366,2.3870
291557,1.7407,2.3862
291558,1.7407,2.3894
291559,1.7382,2.3878
291560,1.7334,2.3902
291561,1.7326,2.3894
291562,1.7399,2.3942
291563,1.7382,2.3942
291564,1.7390,2.3934
291565,1.7382,2.3966
291566,1.7399,2.3982
291567,1.7189,2.3999
291568,1.7334,2.3958
291569,1.7382,2.4071
291570,1.7382,2.4071
291571,1.7407,2.4055
291572,1.7415,2.4087
291573,1.7407,2.4103
291574,1.7407,2.4119
291575,1.7495,2.4144
291576,1.7382,2.4160
291577,1.7415,2.4208
291578,1.7318,2.4232
291579,1.7431,2.4232
291580,1.7439,2.4256
291581,1.7415,2.4264
291582,1.7511,2.4313
291583,1.7463,2.4256
291584,1.7205,2.4329
291585,1.7495,2.4393
291586,1.7447,2.4385
291587,1.7439,2.4426
291588,1.7407,2.4482
291589,1.7463,2.4224
291590,1.7455,2.4603
291591,1.7495,2.4643
291592,1.7455,2.4716
291593,1.7495,2.4748
291594,1.7519,2.4869
291595,1.7487,2.4966
291596,1.7536,2.5038
291597,1.7495,2.5143
291598,1.7552,2.5199
291599,1.7527,2.5304
291600,1.7536,2.5401
291601,1.7544,2.5497
291602,1.7592,2.5618
291603,1.7536,2.5683
291604,1.7640,2.5820
291605,1.7568,2.5916
291606,1.7584,2.6021
291607,1.7673,2.6166
291608,1.7689,2.6287
291609,1.7721,2.6424
291610,1.7689,2.6489
291611,1.7705,2.6553
291612,1.7681,2.6771
291613,1.7681,2.6908
291614,1.7737,2.7004
291615,1.7777,2.7133
291616,1.7777,2.7254
291617,1.7777,2.7375
291618,1.7874,2.7464
291619,1.7874,2.7593
291620,1.7818,2.7641
291621,1.7906,2.7842
291622,1.7906,2.7963
291623,1.7938,2.8028
291624,1.7922,2.8189
291625,1.7906,2.8253
291626,1.7963,2.8407
291627,1.7922,2.8495
291628,1.7938,2.8729
291629,1.7914,2.8673
291630,1.7898,2.8801
291631,1.8043,2.8874
291632,1.8011,2.9019
291633,1.8011,2.9156
291634,1.7979,2.9196
291635,1.8092,2.9301
291636,1.8108,2.9398
291637,1.8059,2.9478
291638,1.8196,2.9470
291639,1.8180,2.9656
291640,1.8075,2.9704
291641,1.8172,2.9785
291642,1.8156,2.9825
291643,1.8156,2.9962
291644,1.8132,3.0026
291645,1.8180,2.9986
291646,1.8229,3.0099
291647,1.8084,3.0171
291648,1.8156,3.0228
291649,1.8180,3.0292
291650,1.8180,3.0333
291651,1.8196,3.0325
291652,1.8317,3.0389
291653,1.8164,3.0445
291654,1.8221,3.0437
291655,1.8180,3.0470
291656,1.8180,3.0470
291657,1.8237,3.0558
291658,1.8204,3.0558
291659,1.8221,3.0550
291660,1.8188,3.0534
291661,1.8196,3.0357
291662,1.8180,3.0615
291663,1.8237,3.0623
291664,1.8180,3.0574
291665,1.8221,3.0639
291666,1.8132,3.0607
291667,1.8180,3.0647
291668,1.8221,3.0615
291669,1.8204,3.0655
291670,1.7922,3.0663
291671,1.8156,3.0631
291672,1.8140,3.0639
291673,1.8124,3.0655
291674,1.8156,3.0639
291675,1.8180,3.0574
291676,1.8212,3.0977
291677,1.8221,3.0736
291678,1.8132,3.0558
291679,1.8180,3.0695
291680,1.8172,3.0631
291681,1.8156,3.0615
291682,1.8100,3.0599
291683,1.8172,3.0574
291684,1.8180,3.0582
291685,1.8140,3.0574
291686,1.8108,3.0558
291687,1.8140,3.0558
291688,1.8075,3.0558
291689,1.8180,3.0590
291690,1.8124,3.0510
291691,1.8148,3.0695
291692,1.8092,3.0550
291693,1.8132,3.0558
291694,1.8140,3.0550
291695,1.8132,3.0470
291696,1.8164,3.0445
291697,1.8140,3.0437
291698,1.8164,3.0357
291699,1.8051,3.0437
291700,1.8132,3.0703
291701,1.8084,3.0437
291702,1.8164,2.9922
291703,1.8059,3.0357
291704,1.8051,3.0341
291705,1.8180,3.0357
291706,1.8067,3.0300
291707,1.8011,3.0300
291708,1.8108,3.0300
291709,1.8067,3.0292
291710,1.8035,3.0316
291711,1.8067,3.0292
291712,1.8059,3.0260
291713,1.8059,3.0276
291714,1.8132,3.0276
291715,1.8084,3.0268
291716,1.8172,3.0252
291717,1.8011,3.0002
291718,1.8124,3.0252
291719,1.8035,3.0252
291720,1.8035,3.0204
291721,1.8100,3.0268
291722,1.8059,3.0284
291723,1.8043,3.0252
291724,1.8059,3.0478
291725,1.8059,3.0300
291726,1.8067,3.0228
291727,1.8075,3.0212
291728,1.8067,3.0179
291729,1.8051,3.0196
291730,1.8003,3.0284
291731,1.8051,3.0300
291732,1.8059,3.0220
291733,1.8027,3.0163
291734,1.8067,3.0163
291735,1.7995,3.0220
291736,1.7971,3.0179
291737,1.8075,3.0147
291738,1.8108,3.0155
291739,1.8043,3.0115
291740,1.8051,3.0083
291741,1.8043,3.0300
291742,1.8132,3.0042
291743,1.8067,2.9970
291744,1.8051,3.0042
291745,1.8027,2.9914
291746,1.8035,2.9914
291747,1.8108,2.9865
291748,1.8108,2.9809
291749,1.7979,2.9785
291750,1.7963,2.9680
291751,1.8100,2.9656
291752,1.8035,2.9648
291753,1.8027,2.9519
291754,1.8043,2.9511
291755,1.8027,2.9406
291756,1.8059,2.9301
291757,1.8051,2.9269
291758,1.8067,2.9245
291759,1.8043,2.9100
291760,1.8003,2.8995
291761,1.8092,2.8834
291762,1.7979,2.8810
291763,1.8035,2.8753
291764,1.8108,2.8769
291765,1.8148,2.8753
291766,1.8188,2.8753
291767,1.8229,2.8858
291768,1.8124,2.8697
291769,1.8027,2.8834
291770,1.7987,2.8785
291771,1.8204,2.8842
291772,1.8035,2.8737
291773,1.8092,2.8753
291774,1.7963,2.8737
291775,1.7979,2.8664
291776,1.8043,2.8495
291777,1.8059,2.8487
291778,1.8035,2.8294
291779,1.7971,2.8125
291780,1.8108,2.7851
291781,1.8019,2.7504
291782,1.7938,2.7174
291783,1.7938,2.6948
291784,1.7842,2.6738
291785,1.7971,2.6601
291786,1.7963,2.6618
291787,1.7922,2.6634
291788,1.7947,2.6682
291789,1.8003,2.6690
291790,1.7922,2.6698
291791,1.7947,2.6674
291792,1.7971,2.6811
291793,1.7922,2.6835
291794,1.7922,2.6900
291795,1.7922,2.6932
291796,1.7922,2.7004
291797,1.7922,2.7061
291798,1.7930,2.7117
291799,1.8067,2.7222
291800,1.7922,2.7206
291801,1.7922,2.7278
291802,1.7890,2.7343
291803,1.7938,2.7520
291804,1.7955,2.7464
291805,1.7922,2.7504
291806,1.7979,2.7552
291807,1.7938,2.7625
291808,1.7930,2.7714
291809,1.8027,2.7722
291810,1.7947,2.7746
291811,1.7963,2.7794
291812,1.7979,2.7810
291813,1.7955,2.7842
291814,1.8051,2.7891
291815,1.7922,2.7834
291816,1.7914,2.7714
291817,1.8019,2.7931
291818,1.8035,2.7834
291819,1.7938,2.7979
291820,1.7979,2.7971
291821,1.8011,2.8028
291822,1.7947,2.8036
291823,1.7963,2.8068
291824,1.7882,2.8205
291825,1.8019,2.8108
291826,1.7995,2.8125
291827,1.8003,2.8149
291828,1.8027,2.8205
291829,1.8059,2.8181
291830,1.8108,2.8149
291831,1.8067,2.8157
291832,1.8059,2.8197
291833,1.8092,2.8237
291834,1.8075,2.8197
291835,1.8051,2.8253
291836,1.8059,2.8334
291837,1.8051,2.8350
291838,1.8180,2.8366
291839,1.8019,2.8495
291840,1.8084,2.8374
291841,1.8043,2.8455
291842,1.8067,2.8487
291843,1.8059,2.8471
291844,1.8180,2.8495
291845,1.8043,2.8495
291846,1.8027,2.8568
291847,1.8075,2.8495
291848,1.8027,2.8519
291849,1.8051,2.8552
291850,1.8124,2.8552
291851,1.8075,2.8536
291852,1.8011,2.8487
291853,1.8019,2.8165
291854,1.8067,2.8390
291855,1.8011,2.8221
291856,1.8059,2.8157
291857,1.8067,2.8036
291858,1.8092,2.7988
291859,1.8124,2.7875
291860,1.8035,2.7818
291861,1.8124,2.7464
291862,1.8108,2.7593
291863,1.8043,2.7480
291864,1.8059,2.7391
291865,1.7979,2.7295
291866,1.8059,2.7206
291867,1.8092,2.7133
291868,1.8051,2.7117
291869,1.7971,2.6924
291870,1.8027,2.7093
291871,1.8011,2.6851
291872,1.8019,2.6698
291873,1.7987,2.6634
291874,1.7955,2.6545
291875,1.8027,2.6537
291876,1.7963,2.6432
291877,1.7987,2.6424
291878,1.7914,2.6344
291879,1.7922,2.6344
291880,1.7922,2.6215
291881,1.7922,2.6182
291882,1.7930,2.6126
291883,1.7995,2.6094
291884,1.7906,2.6045
291885,1.7938,2.6070
291886,1.7955,2.5957
291887,1.7922,2.5916
291888,1.8011,2.5844
291889,1.7938,2.5844
291890,1.7914,2.5916
291891,1.7914,2.5747
291892,1.7930,2.5715
291893,1.7979,2.5707
291894,1.7882,2.5659
291895,1.7898,2.5586
291896,1.7850,2.5634
291897,1.7898,2.5578
291898,1.7576,2.5538
291899,1.7922,2.5481
291900,1.7914,2.5505
291901,1.7842,2.5433
291902,1.7882,2.5401
291903,1.7834,2.5441
291904,1.7850,2.5352
291905,1.7850,2.5385
291906,1.7842,2.5352
291907,1.7906,2.5328
291908,1.7810,2.5320
291909,1.7793,2.5312
291910,1.7890,2.5280
291911,1.7785,2.5232
291912,1.7842,2.5248
291913,1.7866,2.5240
291914,1.7818,2.5232
291915,1.7882,2.5199
291916,1.7874,2.5223
291917,1.7810,2.5191
291918,1.7769,2.4998
291919,1.7874,2.5143
291920,1.7793,2.5143
291921,1.7801,2.5135
291922,1.7922,2.5143
291923,1.7801,2.5111
291924,1.7785,2.5111
291925,1.7777,2.5143
291926,1.7769,2.5095
291927,1.7721,2.5078
291928,1.7753,2.5038
291929,1.7753,2.5062
291930,1.7785,2.5030
291931,1.7785,2.5038
291932,1.7785,2.5014
291933,1.7785,2.5014
291934,1.7745,2.5014
291935,1.7858,2.5070
291936,1.7850,2.5006
291937,1.7793,2.4990
291938,1.7785,2.5006
291939,1.7705,2.4974
291940,1.7777,2.4966
291941,1.7769,2.4998
291942,1.7721,2.4982
291943,1.7737,2.4901
291944,1.7793,2.4990
291945,1.7753,2.4966
291946,1.7664,2.4941
291947,1.7769,2.4958
291948,1.7681,2.4990
291949,1.7705,2.4966
291950,1.7689,2.4974
291951,1.7705,2.4998
291952,1.7753,2.4901
291953,1.7705,2.4885
291954,1.7689,2.4966
291955,1.7713,2.4885
291956,1.7689,2.4933
291957,1.7664,2.4893
291958,1.7689,2.4933
291959,1.7664,2.4958
291960,1.7713,2.4909
291961,1.7656,2.4941
291962,1.7689,2.4933
291963,1.7584,2.4885
291964,1.7632,2.4917
291965,1.7681,2.4966
291966,1.7648,2.4966
291967,1.7681,2.4990
291968,1.7656,2.4901
291969,1.7664,2.5304
291970,1.7648,2.4982
291971,1.7664,2.4998
291972,1.7681,2.4708
291973,1.7511,2.5054
291974,1.7552,2.5095
291975,1.7664,2.5062
291976,1.7624,2.5070
291977,1.7673,2.5111
291978,1.7664,2.5103
291979,1.7560,2.5143
291980,1.7681,2.5143
291981,1.7664,2.5167
291982,1.7664,2.5175
291983,1.7664,2.5199
291984,1.7608,2.5191
291985,1.7640,2.5215
291986,1.7681,2.5240
291987,1.7624,2.5256
291988,1.7624,2.5320
291989,1.7576,2.5296
291990,1.7656,2.5328
291991,1.7664,2.5360
291992,1.7656,2.5352
291993,1.7608,2.5401
291994,1.7664,2.5417
291995,1.7592,2.5473
291996,1.7648,2.5489
291997,1.7584,2.5433
291998,1.7656,2.5578
291999,1.7664,2.5618
292000,1.7632,2.5667
292001,1.7624,2.5667
292002,1.7632,2.5771
292003,1.7560,2.5779
292004,1.7624,2.5844
292005,1.7640,2.5908
292006,1.7673,2.5916
292007,1.7648,2.6005
292008,1.7656,2.6053
292009,1.7664,2.6070
292010,1.7576,2.6174
292011,1.7592,2.6215
292012,1.7544,2.6271
292013,1.7648,2.6327
292014,1.7632,2.6336
292015,1.7592,2.6473
292016,1.7656,2.6618
292017,1.7592,2.6698
292018,1.7697,2.6956
292019,1.7689,2.6988
292020,1.7753,2.7053
292021,1.7689,2.7230
292022,1.7648,2.7327
292023,1.7648,2.7415
292024,1.7664,2.7520
292025,1.7753,2.7665
292026,1.7761,2.7738
292027,1.7705,2.7842
292028,1.7745,2.7939
292029,1.7673,2.8068
292030,1.7769,2.8229
292031,1.7681,2.8253
292032,1.7681,2.8342
292033,1.7745,2.8471
292034,1.7689,2.8495
292035,1.7810,2.8600
292036,1.7818,2.8753
292037,1.7753,2.8769
292038,1.7785,2.8810
292039,1.7785,2.8874
292040,1.7842,2.9035
292041,1.7769,2.9067
292042,1.7874,2.9196
292043,1.7898,2.9269
292044,1.7785,2.9269
292045,1.7850,2.9349
292046,1.7866,2.9438
292047,1.7866,2.9535
292048,1.7898,2.9664
292049,1.7850,2.9599
292050,1.7874,2.9680
292051,1.7914,2.9744
292052,1.7850,2.9793
292053,1.7922,2.9801
292054,1.7922,2.9841
292055,1.7914,2.9865
292056,1.7882,2.9994
292057,1.7930,3.0042
292058,1.7922,3.0059
292059,1.7898,3.0131
292060,1.7938,3.0188
292061,1.7906,3.0147
292062,1.7842,3.0325
292063,1.7906,3.0252
292064,1.7922,3.0292
292065,1.7874,3.0341
292066,1.7906,3.0325
292067,1.7914,3.0421
292068,1.7826,3.0437
292069,1.7826,3.0445
292070,1.7818,3.0502
292071,1.7938,3.0542
292072,1.8035,3.0518
292073,1.7874,3.0558
292074,1.7858,3.0663
292075,1.7834,3.0599
292076,1.7898,3.0679
292077,1.7922,3.0719
292078,1.7842,3.0711
292079,1.7632,3.0744
292080,1.7826,3.0687
292081,1.7922,3.0784
292082,1.7769,3.0744
292083,1.7818,3.0768
292084,1.7785,3.0776
292085,1.7777,3.0832
292086,1.7866,3.0824
292087,1.7745,3.0856
292088,1.7705,3.1211
292089,1.7761,3.0897
292090,1.7785,3.0824
292091,1.7495,3.0873
292092,1.7818,3.0873
292093,1.7689,3.0792
292094,1.7713,3.0953
292095,1.7689,3.0913
292096,1.7721,3.0985
292097,1.7745,3.0961
292098,1.7753,3.0727
292099,1.7608,3.0985
292100,1.7673,3.0969
292101,1.7753,3.0993
292102,1.7777,3.0953
292103,1.7705,3.0977
292104,1.7664,3.1058
292105,1.7664,3.1001
292106,1.7721,3.1074
292107,1.7689,3.0848
292108,1.7705,3.1074
292109,1.7801,3.1066
292110,1.7632,3.1074
292111,1.7673,3.1082
292112,1.7656,3.1058
292113,1.7584,3.1090
292114,1.7664,3.1050
292115,1.7616,3.1332
292116,1.7640,3.1090
292117,1.7648,3.1074
292118,1.7624,3.1090
292119,1.7664,3.1050
292120,1.7656,3.1090
292121,1.7608,3.1098
292122,1.7592,3.1122
292123,1.7656,3.1114
292124,1.7544,3.1082
292125,1.7608,3.1082
292126,1.7608,3.1187
292127,1.7592,3.1114
292128,1.7576,3.1179
292129,1.7584,3.1122
292130,1.7624,3.1163
292131,1.7576,3.0768
292132,1.7511,3.1098
292133,1.7519,3.0873
292134,1.7544,3.1082
292135,1.7519,3.1114
292136,1.7536,3.1155
292137,1.7576,3.1195
292138,1.7544,3.1130
292139,1.7487,3.1155
292140,1.7584,3.1227
292141,1.7447,3.1203
292142,1.7536,3.1227
292143,1.7511,3.1292
292144,1.7487,3.1275
292145,1.7552,3.1372
292146,1.7527,3.1372
292147,1.7519,3.1372
292148,1.7536,3.1356
292149,1.7536,3.1437
292150,1.7527,3.1171
292151,1.7358,3.1485
292152,1.7536,3.1582
292153,1.7536,3.1590
292154,1.7632,3.1598
292155,1.7527,3.1654
292156,1.7544,3.1195
292157,1.7511,3.1630
292158,1.7527,3.1743
292159,1.7536,3.1727
292160,1.7584,3.1775
292161,1.7511,3.1775
292162,1.7673,3.1936
292163,1.7560,3.1848
292164,1.7560,3.1896
292165,1.7640,3.1968
292166,1.7624,3.1985
292167,1.7511,3.2065
292168,1.7592,3.2162
292169,1.7495,3.2146
292170,1.7536,3.2234
292171,1.7495,3.2315
292172,1.7576,3.2339
292173,1.7552,3.2331
292174,1.7576,3.2275
292175,1.7560,3.2476
292176,1.7544,3.2492
292177,1.7616,3.2508
292178,1.7624,3.2581
292179,1.7608,3.2662
292180,1.7592,3.2758
292181,1.7576,3.2919
292182,1.7560,3.2984
292183,1.7624,3.3000
292184,1.7584,3.3000
292185,1.7608,3.3000
292186,1.7664,3.3000
292187,1.7608,3.3000
292188,1.7584,3.3000
292189,1.7713,3.3000
292190,1.7656,3.3000
292191,1.7576,3.3000
292192,1.7624,3.3000
292193,1.7656,3.3000
292194,1.7584,3.3000
292195,1.7656,3.3000
292196,1.7664,3.3000
292197,1.7697,3.3000
292198,1.7656,3.3000
292199,1.7664,3.3000
292200,1.7721,3.3000
292201,1.7536,3.3000
292202,1.7664,3.3000
292203,1.7640,3.3000
292204,1.7656,3.3000
292205,1.7664,3.3000
292206,1.7705,3.3000
292207,1.7681,3.3000
292208,1.7664,3.3000
292209,1.7801,3.3000
292210,1.7769,3.3000
292211,1.7681,3.3000
292212,1.7737,3.3000
292213,1.7801,3.3000
292214,1.7664,3.3000
292215,1.7753,3.3000
292216,1.7689,3.3000
