time_ms,ch1_v,ch2_v
490780,1.7334,2.5401
490781,1.7382,2.5377
490782,1.7318,2.5344
490783,1.7326,2.5401
490784,1.7334,2.5393
490785,1.7350,2.5393
490786,1.7358,2.5385
490787,1.7382,2.5401
490788,1.7399,2.5409
490789,1.7366,2.5385
490790,1.7350,2.5401
490791,1.7302,2.5401
490792,1.7350,2.5393
490793,1.7390,2.5401
490794,1.7318,2.5401
490795,1.7382,2.5377
490796,1.7366,2.5401
490797,1.7334,2.5393
490798,1.7447,2.5401
490799,1.7350,2.5328
490800,1.7374,2.5385
490801,1.7390,2.5393
490802,1.7326,2.5377
490803,1.7366,2.5393
490804,1.7382,2.5368
490805,1.7318,2.5401
490806,1.7350,2.5393
490807,1.7374,2.5385
490808,1.7350,2.5401
490809,1.7318,2.5393
490810,1.7407,2.5401
490811,1.7366,2.5352
490812,1.7399,2.5401
490813,1.7350,2.5393
490814,1.7366,2.5385
490815,1.7374,2.5401
490816,1.7390,2.5393
490817,1.7334,2.5393
490818,1.7374,2.5401
490819,1.7358,2.5401
490820,1.7358,2.5401
490821,1.7390,2.5377
490822,1.7366,2.5393
490823,1.7358,2.5393
490824,1.7358,2.5385
490825,1.7407,2.5393
490826,1.7294,2.5401
490827,1.7262,2.5401
490828,1.7358,2.5401
490829,1.7479,2.5409
490830,1.7366,2.5401
490831,1.7350,2.5377
490832,1.7382,2.5385
490833,1.7374,2.5401
490834,1.7374,2.5368
490835,1.7382,2.5401
490836,1.7382,2.5393
490837,1.7318,2.5401
490838,1.7334,2.5385
490839,1.7390,2.5401
490840,1.7366,2.5401
490841,1.7382,2.5401
490842,1.7366,2.5385
490843,1.7399,2.5385
490844,1.7334,2.5401
490845,1.7358,2.5401
490846,1.7374,2.5377
490847,1.7334,2.5393
490848,1.7366,2.5393
490849,1.7511,2.5393
490850,1.7358,2.5401
490851,1.7382,2.5393
490852,1.7382,2.5401
490853,1.7415,2.5401
490854,1.7358,2.5401
490855,1.7407,2.5401
490856,1.7390,2.5377
490857,1.7407,2.5401
490858,1.7390,2.5401
490859,1.7382,2.5401
490860,1.7334,2.5409
490861,1.7366,2.5385
490862,1.7382,2.5401
490863,1.7407,2.5401
490864,1.7326,2.5401
490865,1.7334,2.5401
490866,1.7334,2.5401
490867,1.7366,2.5385
490868,1.7366,2.5393
490869,1.7382,2.5393
490870,1.7342,2.5401
490871,1.7527,2.5393
490872,1.7366,2.5401
490873,1.7390,2.5393
490874,1.7366,2.5401
490875,1.7382,2.5401
490876,1.7382,2.5409
490877,1.7366,2.5385
490878,1.7318,2.5401
490879,1.7358,2.5401
490880,1.7366,2.5401
490881,1.7350,2.5385
490882,1.7390,2.5401
490883,1.7318,2.5401
490884,1.7366,2.5401
490885,1.7358,2.5385
490886,1.7358,2.5473
490887,1.7366,2.5739
490888,1.7326,2.5425
490889,1.7358,2.5401
490890,1.7390,2.5393
490891,1.7390,2.5401
490892,1.7374,2.5409
490893,1.7382,2.5401
490894,1.7366,2.5393
490895,1.7366,2.5401
490896,1.7358,2.5344
490897,1.7399,2.5401
490898,1.7342,2.5393
490899,1.7350,2.5401
490900,1.7350,2.5272
490901,1.7382,2.5401
490902,1.7366,2.5385
490903,1.7382,2.5393
490904,1.7334,2.5417
490905,1.7366,2.5401
490906,1.7399,2.5377
490907,1.7350,2.5393
490908,1.7382,2.5401
490909,1.7326,2.5401
490910,1.7366,2.5368
490911,1.7334,2.5401
490912,1.7390,2.5425
490913,1.7318,2.5393
490914,1.7366,2.5401
490915,1.7399,2.5393
490916,1.7318,2.5393
490917,1.7423,2.5401
490918,1.7399,2.5425
490919,1.7390,2.5401
490920,1.7399,2.5401
490921,1.7350,2.5570
490922,1.7358,2.5385
490923,1.7350,2.5393
490924,1.7382,2.5401
490925,1.7302,2.5401
490926,1.7334,2.5393
490927,1.7390,2.5417
490928,1.7334,2.5401
490929,1.7407,2.5425
490930,1.7390,2.5401
490931,1.7407,2.5417
490932,1.7358,2.5385
490933,1.7366,2.5401
490934,1.7399,2.5377
490935,1.7350,2.5409
490936,1.7318,2.5433
490937,1.7358,2.5401
490938,1.7390,2.5401
490939,1.7407,2.5401
490940,1.7358,2.5401
490941,1.7390,2.5409
490942,1.7334,2.5223
490943,1.7334,2.5401
490944,1.7366,2.5401
490945,1.7366,2.5401
490946,1.7399,2.5385
490947,1.7318,2.5401
490948,1.7334,2.5223
490949,1.7334,2.5659
490950,1.7382,2.5385
490951,1.7358,2.5393
490952,1.7382,2.5401
490953,1.7326,2.5522
490954,1.7334,2.5401
490955,1.7366,2.5167
490956,1.7366,2.5296
490957,1.7390,2.5401
490958,1.7382,2.5514
490959,1.7334,2.5360
490960,1.7399,2.5505
490961,1.7366,2.5481
490962,1.7407,2.5401
490963,1.7399,2.5401
490964,1.7350,2.5393
490965,1.7407,2.5401
490966,1.7358,2.5401
490967,1.7334,2.5272
490968,1.7382,2.5377
490969,1.7358,2.5401
490970,1.7358,2.5401
490971,1.7399,2.5401
490972,1.7366,2.5401
490973,1.7382,2.5417
490974,1.7390,2.5393
490975,1.7358,2.5425
490976,1.7374,2.5425
490977,1.7407,2.5401
490978,1.7407,2.5401
490979,1.7382,2.5183
490980,1.7326,2.5296
490981,1.7382,2.5401
490982,1.7350,2.5441
490983,1.7334,2.5393
490984,1.7326,2.5191
490985,1.7399,2.5401
490986,1.7366,2.5304
490987,1.7382,2.5385
490988,1.7302,2.5393
490989,1.7358,2.5425
490990,1.7390,2.5223
490991,1.7358,2.5401
490992,1.7382,2.5417
490993,1.7334,2.5401
490994,1.7407,2.5602
490995,1.7382,2.5401
490996,1.7358,2.5151
490997,1.7302,2.5401
490998,1.7334,2.5304
490999,1.7366,2.5401
491000,1.7326,2.5401
491001,1.7390,2.5401
491002,1.7350,2.5401
491003,1.7382,2.5360
491004,1.7350,2.5409
491005,1.7334,2.5183
491006,1.7374,2.5401
491007,1.7358,2.5401
491008,1.7399,2.5393
491009,1.7326,2.5401
491010,1.7350,2.5393
491011,1.7390,2.5401
491012,1.7390,2.5401
491013,1.7334,2.5312
491014,1.7350,2.5417
491015,1.7350,2.5393
491016,1.7374,2.5425
491017,1.7382,2.5401
491018,1.7358,2.5393
491019,1.7374,2.5401
491020,1.7334,2.5385
491021,1.7350,2.5393
491022,1.7382,2.5409
491023,1.7390,2.5401
491024,1.7334,2.5409
491025,1.7350,2.5401
491026,1.7334,2.5393
491027,1.7358,2.5401
491028,1.7334,2.5401
491029,1.7382,2.5401
491030,1.7358,2.5401
491031,1.7350,2.5401
491032,1.7334,2.5401
491033,1.7366,2.5377
491034,1.7407,2.5385
491035,1.7350,2.5360
491036,1.7326,2.5401
491037,1.7366,2.5393
491038,1.7334,2.5401
491039,1.7374,2.5393
491040,1.7390,2.5417
491041,1.7374,2.5377
491042,1.7390,2.5401
491043,1.7399,2.5401
491044,1.7390,2.5401
491045,1.7326,2.5191
491046,1.7382,2.5401
491047,1.7366,2.5401
491048,1.7366,2.5401
491049,1.7390,2.5401
491050,1.7390,2.5401
491051,1.7390,2.5401
491052,1.7334,2.5401
491053,1.7358,2.5425
491054,1.7366,2.5377
491055,1.7350,2.5401
491056,1.7382,2.5401
491057,1.7382,2.5417
491058,1.7334,2.5401
491059,1.7382,2.5393
491060,1.7366,2.5401
491061,1.7374,2.5401
491062,1.7374,2.5393
491063,1.7358,2.5401
491064,1.7382,2.5401
491065,1.7358,2.5409
491066,1.7334,2.5393
491067,1.7374,2.5401
491068,1.7382,2.5417
491069,1.7334,2.5409
491070,1.7374,2.5401
491071,1.7358,2.5401
491072,1.7407,2.5417
491073,1.7334,2.5401
491074,1.7399,2.5401
491075,1.7366,2.5344
491076,1.7399,2.5433
491077,1.7358,2.5409
491078,1.7382,2.5401
491079,1.7382,2.5393
491080,1.7366,2.5393
491081,1.7366,2.5328
491082,1.7350,2.5377
491083,1.7390,2.5393
491084,1.7390,2.5393
491085,1.7350,2.5401
491086,1.7390,2.5401
491087,1.7382,2.5401
491088,1.7366,2.5401
491089,1.7399,2.5401
491090,1.7390,2.5425
491091,1.7407,2.5417
491092,1.7382,2.5401
491093,1.7334,2.5409
491094,1.7382,2.5401
491095,1.7334,2.5401
491096,1.7334,2.5401
491097,1.7326,2.5401
491098,1.7390,2.5393
491099,1.7342,2.5385
491100,1.7350,2.5401
491101,1.7407,2.5320
491102,1.7382,2.5385
491103,1.7366,2.5409
491104,1.7366,2.5401
491105,1.7382,2.5393
491106,1.7407,2.5409
491107,1.7334,2.5401
491108,1.7350,2.5457
491109,1.7366,2.5401
491110,1.7350,2.5441
491111,1.7390,2.5401
491112,1.7350,2.5401
491113,1.7350,2.5409
491114,1.7342,2.5401
491115,1.7334,2.5360
491116,1.7358,2.5401
491117,1.7366,2.5385
491118,1.7382,2.5401
491119,1.7366,2.5401
491120,1.7390,2.5377
491121,1.7382,2.5401
491122,1.7358,2.5409
491123,1.7366,2.5385
491124,1.7366,2.5393
491125,1.7326,2.5385
491126,1.7366,2.5401
491127,1.7374,2.5409
491128,1.7390,2.5401
491129,1.7334,2.5409
491130,1.7382,2.5449
491131,1.7399,2.5433
491132,1.7399,2.5409
491133,1.7382,2.5425
491134,1.7366,2.5401
491135,1.7382,2.5401
491136,1.7358,2.5409
491137,1.7366,2.5409
491138,1.7326,2.5425
491139,1.7334,2.5401
491140,1.7366,2.5473
491141,1.7334,2.5401
491142,1.7399,2.5401
491143,1.7366,2.5481
491144,1.7366,2.5401
491145,1.7407,2.5401
491146,1.7366,2.5401
491147,1.7382,2.5401
491148,1.7366,2.5401
491149,1.7358,2.5401
491150,1.7358,2.5385
491151,1.7310,2.5401
491152,1.7358,2.5449
491153,1.7366,2.5401
491154,1.7382,2.5401
491155,1.7407,2.5401
491156,1.7407,2.5409
491157,1.7342,2.5401
491158,1.7334,2.5401
491159,1.7374,2.5401
491160,1.7350,2.5425
491161,1.7358,2.5401
491162,1.7358,2.5401
491163,1.7358,2.5401
491164,1.7390,2.5393
491165,1.7390,2.5417
491166,1.7390,2.5401
491167,1.7350,2.5457
491168,1.7366,2.5401
491169,1.7350,2.5401
491170,1.7374,2.5401
491171,1.7382,2.5441
491172,1.7382,2.5401
491173,1.7407,2.5385
491174,1.7399,2.5401
491175,1.7358,2.5401
491176,1.7382,2.5401
491177,1.7390,2.5401
491178,1.7366,2.5409
491179,1.7334,2.5409
491180,1.7399,2.5409
491181,1.7390,2.5401
491182,1.7390,2.5409
491183,1.7390,2.5352
491184,1.7407,2.5401
491185,1.7334,2.5401
491186,1.7366,2.5409
491187,1.7407,2.5401
491188,1.7407,2.5401
491189,1.7366,2.5401
491190,1.7664,2.5409
491191,1.7366,2.5401
491192,1.7358,2.5401
491193,1.7382,2.5417
491194,1.7382,2.5401
491195,1.7382,2.5417
491196,1.7407,2.5409
491197,1.7366,2.5401
491198,1.7358,2.5401
491199,1.7334,2.5401
491200,1.7382,2.5401
491201,1.7350,2.5401
491202,1.7382,2.5393
491203,1.7382,2.5401
491204,1.7399,2.5409
491205,1.7390,2.5401
491206,1.7366,2.5377
491207,1.7350,2.5401
491208,1.7342,2.5385
491209,1.7350,2.5401
491210,1.7366,2.5457
491211,1.7366,2.5360
491212,1.7407,2.5425
491213,1.7407,2.5401
491214,1.7366,2.5441
491215,1.7382,2.5409
491216,1.7390,2.5401
491217,1.7399,2.5417
491218,1.7431,2.5401
491219,1.7326,2.5377
491220,1.7358,2.5401
491221,1.7399,2.5473
491222,1.7366,2.5401
491223,1.7399,2.5409
491224,1.7358,2.5393
491225,1.7390,2.5401
491226,1.7511,2.5401
491227,1.7382,2.5409
491228,1.7390,2.5409
491229,1.7358,2.5393
491230,1.7390,2.5425
491231,1.7399,2.5401
491232,1.7431,2.5385
491233,1.7407,2.5409
491234,1.7390,2.5401
491235,1.7382,2.5425
491236,1.7407,2.5393
491237,1.7407,2.5409
491238,1.7447,2.5409
491239,1.7407,2.5401
491240,1.7407,2.5401
491241,1.7382,2.5409
491242,1.7366,2.5401
491243,1.7245,2.5401
491244,1.7382,2.5393
491245,1.7407,2.5401
491246,1.7407,2.5401
491247,1.7399,2.5417
491248,1.7382,2.5401
491249,1.7407,2.5401
491250,1.7407,2.5401
491251,1.7366,2.5401
491252,1.7358,2.5401
491253,1.7382,2.5417
491254,1.7407,2.5401
491255,1.7382,2.5425
491256,1.7390,2.5409
491257,1.7366,2.5393
491258,1.7423,2.5401
491259,1.7382,2.5393
491260,1.7358,2.5401
491261,1.7407,2.5368
491262,1.7407,2.5417
491263,1.7407,2.5360
491264,1.7302,2.5417
491265,1.7390,2.5401
491266,1.7326,2.5401
491267,1.7374,2.5409
491268,1.7415,2.5417
491269,1.7399,2.5417
491270,1.7382,2.5401
491271,1.7382,2.5401
491272,1.7334,2.5417
491273,1.7447,2.5393
491274,1.7407,2.5401
491275,1.7358,2.5377
491276,1.7390,2.5385
491277,1.7399,2.5401
491278,1.7399,2.5393
491279,1.7447,2.5401
491280,1.7407,2.5393
491281,1.7415,2.5352
491282,1.7407,2.5328
491283,1.7399,2.5360
491284,1.7415,2.5393
491285,1.7294,2.5344
491286,1.7382,2.5385
491287,1.7382,2.5385
491288,1.7390,2.5377
491289,1.7431,2.5352
491290,1.7439,2.5352
491291,1.7399,2.5360
491292,1.7423,2.5352
491293,1.7407,2.5377
491294,1.7407,2.5377
491295,1.7487,2.5385
491296,1.7407,2.5377
491297,1.7415,2.5393
491298,1.7415,2.5393
491299,1.7407,2.5457
491300,1.7382,2.5401
491301,1.7382,2.5401
491302,1.7407,2.5417
491303,1.7407,2.5401
491304,1.7205,2.5401
491305,1.7407,2.5401
491306,1.7407,2.5409
491307,1.7270,2.5393
491308,1.7407,2.5401
491309,1.7407,2.5425
491310,1.7407,2.5425
491311,1.7415,2.5401
491312,1.7407,2.5425
491313,1.7423,2.5425
491314,1.7407,2.5409
491315,1.7407,2.5409
491316,1.7407,2.5425
491317,1.7552,2.5401
491318,1.7407,2.5401
491319,1.7407,2.5401
491320,1.7407,2.5401
491321,1.7407,2.5393
491322,1.7415,2.5401
491323,1.7415,2.5401
491324,1.7479,2.5401
491325,1.7286,2.5401
491326,1.7439,2.5401
491327,1.7407,2.5417
491328,1.7415,2.5401
491329,1.7423,2.5401
491330,1.7447,2.5409
491331,1.7423,2.5409
491332,1.7447,2.5401
491333,1.7431,2.5401
491334,1.7407,2.5409
491335,1.7390,2.5401
491336,1.7407,2.5401
491337,1.7399,2.5409
491338,1.7423,2.5417
491339,1.7423,2.5401
491340,1.7407,2.5425
491341,1.7423,2.5409
491342,1.7407,2.5409
491343,1.7431,2.5401
491344,1.7431,2.5393
491345,1.7415,2.5409
491346,1.7415,2.5393
491347,1.7407,2.5409
491348,1.7423,2.5401
491349,1.7439,2.5393
491350,1.7431,2.5409
491351,1.7310,2.5401
491352,1.7447,2.5393
491353,1.7479,2.5385
491354,1.7455,2.5393
491355,1.7455,2.5425
491356,1.7447,2.5409
491357,1.7407,2.5401
491358,1.7511,2.5401
491359,1.7431,2.5377
491360,1.7455,2.5401
491361,1.7479,2.5401
491362,1.7439,2.5401
491363,1.7463,2.5401
491364,1.7423,2.5409
491365,1.7374,2.5401
491366,1.7431,2.5401
491367,1.7439,2.5401
491368,1.7519,2.5288
491369,1.7431,2.5401
491370,1.7431,2.5409
491371,1.7479,2.5401
491372,1.7439,2.5409
491373,1.7407,2.5409
491374,1.7519,2.5401
491375,1.7519,2.5167
491376,1.7519,2.5401
491377,1.7447,2.5393
491378,1.7487,2.5449
491379,1.7584,2.5393
491380,1.7511,2.5401
491381,1.7382,2.5401
491382,1.7495,2.5385
491383,1.7527,2.5401
491384,1.7487,2.5401
491385,1.7527,2.5377
491386,1.7463,2.5288
491387,1.7431,2.5377
491388,1.7527,2.5530
491389,1.7479,2.5385
491390,1.7495,2.5393
491391,1.7527,2.5401
491392,1.7560,2.5377
491393,1.7455,2.5288
491394,1.7479,2.5377
491395,1.7463,2.5360
491396,1.7495,2.4885
491397,1.7455,2.5393
491398,1.7536,2.5401
491399,1.7544,2.5401
491400,1.7511,2.5401
491401,1.7479,2.5401
491402,1.7536,2.5401
491403,1.7519,2.5401
491404,1.7463,2.5377
491405,1.7503,2.5377
491406,1.7527,2.5377
491407,1.7536,2.5393
491408,1.7536,2.5393
491409,1.7495,2.5385
491410,1.7479,2.5393
491411,1.7350,2.5393
491412,1.7527,2.5401
491413,1.7495,2.5393
491414,1.7511,2.5401
491415,1.7511,2.5377
491416,1.7511,2.5401
491417,1.7536,2.5401
491418,1.7536,2.5385
491419,1.7495,2.5385
491420,1.7503,2.5360
491421,1.7495,2.5401
491422,1.7536,2.5546
491423,1.7544,2.5312
491424,1.7527,2.5368
491425,1.7536,2.5352
491426,1.7552,2.5344
491427,1.7536,2.5393
491428,1.7519,2.5401
491429,1.7511,2.5320
491430,1.7536,2.5377
491431,1.7536,2.5385
491432,1.7511,2.5393
491433,1.7479,2.5352
491434,1.7511,2.5280
491435,1.7536,2.5360
491436,1.7527,2.5377
491437,1.7592,2.5368
491438,1.7455,2.5296
491439,1.7576,2.5352
491440,1.7527,2.5328
491441,1.7536,2.5360
491442,1.7527,2.5352
491443,1.7560,2.5320
491444,1.7536,2.5377
491445,1.7544,2.4974
491446,1.7536,2.5377
491447,1.7511,2.5038
491448,1.7640,2.5336
491449,1.7536,2.5562
491450,1.7552,2.5360
491451,1.7536,2.5360
491452,1.7552,2.5272
491453,1.7527,2.5336
491454,1.7568,2.5352
491455,1.7536,2.5360
491456,1.7544,2.5401
491457,1.7576,2.5328
491458,1.7592,2.5344
491459,1.7584,2.5280
491460,1.7624,2.5368
491461,1.7568,2.5344
491462,1.7479,2.5288
491463,1.7592,2.5320
491464,1.7560,2.5344
491465,1.7527,2.5328
491466,1.7536,2.5264
491467,1.7544,2.5328
491468,1.7536,2.5352
491469,1.7536,2.5368
491470,1.7560,2.5586
491471,1.7511,2.5328
491472,1.7536,2.5328
491473,1.7552,2.5272
491474,1.7576,2.5320
491475,1.7536,2.5360
491476,1.7552,2.4998
491477,1.7592,2.5328
491478,1.7560,2.5264
491479,1.7576,2.5030
491480,1.7584,2.5320
491481,1.7576,2.5159
491482,1.7616,2.5296
491483,1.7616,2.5642
491484,1.7624,2.5328
491485,1.7584,2.5296
491486,1.7616,2.5312
491487,1.7608,2.5401
491488,1.7632,2.5360
491489,1.7592,2.5296
491490,1.7616,2.5328
491491,1.7664,2.5240
491492,1.7592,2.4966
491493,1.7536,2.5352
491494,1.7576,2.5304
491495,1.7640,2.5344
491496,1.7560,2.5328
491497,1.7560,2.5151
491498,1.7592,2.5296
491499,1.7560,2.5312
491500,1.7616,2.5288
491501,1.7576,2.5312
491502,1.7640,2.5272
491503,1.7576,2.5320
491504,1.7624,2.5280
491505,1.7632,2.5304
491506,1.7568,2.5344
491507,1.7592,2.5304
491508,1.7640,2.5296
491509,1.7624,2.5159
491510,1.7664,2.5272
491511,1.7584,2.5304
491512,1.7552,2.5272
491513,1.7624,2.5328
491514,1.7576,2.5328
491515,1.7576,2.5296
491516,1.7560,2.5288
491517,1.7576,2.5272
491518,1.7640,2.5280
491519,1.7592,2.5320
491520,1.7624,2.5272
491521,1.7592,2.5272
492750,1.7270,2.5151
492751,1.7302,2.5151
492752,1.7318,2.5143
492752,1.7318,2.5143
492752,1.7318,2.5143
492752,1.7286,2.5135
492754,1.7278,2.5143
492755,1.7270,2.5143
492756,1.7286,2.5143
492757,1.7205,2.5143
492758,1.7415,2.5151
492759,1.7270,2.5159
492760,1.7286,2.5135
492761,1.7189,2.5183
492762,1.7278,2.5143
492763,1.7253,2.5151
492764,1.7278,2.5151
492765,1.7262,2.5135
492766,1.7326,2.5199
492767,1.7294,2.5143
492768,1.7294,2.5143
492769,1.7294,2.5127
492770,1.7286,2.5135
492771,1.7245,2.5127
492772,1.7334,2.5135
492773,1.7350,2.5159
492774,1.7262,2.5143
492775,1.7278,2.5143
492776,1.7270,2.5127
492777,1.7278,2.5191
492778,1.7399,2.5119
492779,1.7237,2.5143
492780,1.7318,2.5143
492781,1.7253,2.5135
492782,1.7237,2.5143
492783,1.7278,2.5143
492784,1.7205,2.5143
492785,1.7447,2.5143
492786,1.7237,2.5127
492787,1.7262,2.5135
492788,1.7253,2.5119
492789,1.7173,2.5135
492790,1.7205,2.5143
492791,1.7197,2.5127
492792,1.7221,2.5127
492793,1.7463,2.5135
492794,1.7262,2.5135
492795,1.7399,2.5175
492796,1.7318,2.5143
492797,1.7189,2.5135
492798,1.7374,2.5143
492799,1.7270,2.5143
492800,1.7052,2.5151
492801,1.7133,2.5143
492802,1.7237,2.5143
492803,1.7133,2.5135
492804,1.7237,2.5143
492805,1.7245,2.5143
492806,1.7278,2.5151
492807,1.7229,2.5151
492808,1.7229,2.5167
492809,1.7229,2.5151
492810,1.7358,2.5135
492811,1.7181,2.5143
492812,1.7221,2.5143
492813,1.7141,2.5151
492814,1.7181,2.5151
492815,1.7253,2.5183
492816,1.7237,2.5143
492817,1.7286,2.5159
492818,1.7221,2.5159
492819,1.7197,2.5151
492820,1.7253,2.5151
492821,1.7350,2.5167
492822,1.7213,2.5167
492823,1.7229,2.5151
492824,1.7237,2.5151
492825,1.7262,2.5175
492826,1.7253,2.5143
492827,1.7197,2.5151
492828,1.7350,2.5143
492829,1.7229,2.5175
492830,1.7229,2.5167
492831,1.7229,2.5191
492832,1.7221,2.5191
492833,1.7245,2.5143
492834,1.7197,2.5151
492835,1.7245,2.5167
492836,1.7253,2.5183
492837,1.7205,2.5143
492838,1.7205,2.5159
492839,1.7407,2.5143
492840,1.7213,2.5183
492841,1.7270,2.5143
492842,1.7205,2.5151
492843,1.7197,2.5167
492844,1.7229,2.4627
492845,1.7262,2.5191
492846,1.7205,2.5183
492847,1.7399,2.5183
492848,1.7237,2.5199
492849,1.7229,2.5167
492850,1.7197,2.5191
492851,1.7229,2.5167
492852,1.7278,2.5377
492853,1.7237,2.5183
492854,1.7205,2.5151
492855,1.7205,2.5191
492856,1.7229,2.5320
492857,1.7262,2.5272
492858,1.7173,2.5151
492859,1.7253,2.5183
492860,1.7262,2.5159
492861,1.7262,2.5191
492862,1.7157,2.5199
492863,1.7189,2.5232
492864,1.7173,2.5215
492865,1.7229,2.5159
492866,1.7205,2.5191
492867,1.7237,2.5167
492868,1.7237,2.5457
492869,1.7205,2.5191
492870,1.7205,2.5191
492871,1.7237,2.5199
492872,1.7205,2.5191
492873,1.7237,2.5199
492874,1.7237,2.5215
492875,1.7173,2.5232
492876,1.7245,2.5272
492877,1.7173,2.5191
492878,1.7286,2.5143
492879,1.7253,2.5248
492880,1.7237,2.5215
492881,1.7197,2.5207
492882,1.7253,2.5199
492883,1.7165,2.5232
492884,1.7221,2.5207
492885,1.7334,2.5215
492886,1.7237,2.4998
492887,1.7213,2.5240
492888,1.7197,2.5223
492889,1.7100,2.5191
492890,1.7221,2.5159
492891,1.7358,2.5199
492892,1.7205,2.5159
492893,1.7205,2.5248
492894,1.7149,2.5151
492895,1.7197,2.5393
492896,1.7237,2.5175
492897,1.7245,2.5199
492898,1.7173,2.5232
492899,1.7229,2.5264
492900,1.7221,2.5199
492901,1.7245,2.5191
492902,1.7229,2.4958
492903,1.7165,2.5248
492904,1.7165,2.5248
492905,1.7165,2.5191
492906,1.7165,2.5199
492907,1.7229,2.5256
492908,1.7165,2.5232
492909,1.7205,2.5344
492910,1.7165,2.5191
492911,1.7165,2.5256
492912,1.7173,2.5320
492913,1.7197,2.5280
492914,1.7221,2.5232
492915,1.7229,2.5232
492916,1.7205,2.5425
492917,1.7221,2.5280
492918,1.7253,2.5248
492919,1.7205,2.5215
492920,1.7157,2.5240
492921,1.7173,2.5248
492922,1.7165,2.5095
492923,1.7197,2.4990
492924,1.7205,2.5248
492925,1.7229,2.5223
492926,1.7229,2.5264
492927,1.7205,2.5280
492928,1.7181,2.5248
492929,1.7205,2.5038
492930,1.7157,2.5223
492931,1.7229,2.5248
492932,1.7165,2.5248
492933,1.7149,2.5264
492934,1.7205,2.5240
492935,1.7181,2.5272
492936,1.7205,2.4941
492937,1.7229,2.5248
492938,1.7253,2.5248
492939,1.7189,2.5248
492940,1.7221,2.5256
492941,1.7173,2.5256
492942,1.7165,2.5232
492943,1.7173,2.5199
492944,1.7149,2.4958
492945,1.7205,2.5264
492946,1.7149,2.5272
492947,1.7165,2.5248
492948,1.7173,2.5248
492949,1.7157,2.5240
492950,1.7173,2.5401
492951,1.7149,2.5264
492952,1.7189,2.5530
492953,1.7181,2.5232
492954,1.7157,2.5264
492955,1.7165,2.5248
492956,1.7165,2.5248
492957,1.7157,2.5232
492958,1.7173,2.5256
492959,1.7173,2.5207
492960,1.7165,2.5264
492961,1.7165,2.5215
492962,1.7189,2.4974
492963,1.7157,2.5199
492964,1.7189,2.5167
492965,1.7149,2.5232
492966,1.7205,2.5232
492967,1.7197,2.5385
492968,1.7205,2.5248
492969,1.7173,2.5256
492970,1.7157,2.5232
492971,1.7141,2.5312
492972,1.7173,2.5232
492973,1.7149,2.5183
492974,1.7197,2.5183
492975,1.7149,2.5248
492976,1.7149,2.5248
492977,1.7149,2.5159
492978,1.7149,2.5199
492979,1.7181,2.5223
492980,1.7149,2.5248
492981,1.7165,2.5223
492982,1.7149,2.5385
492983,1.7173,2.5232
492984,1.7149,2.5159
492985,1.7149,2.5248
492986,1.7165,2.5368
492987,1.7149,2.5320
492988,1.7149,2.5215
492989,1.7165,2.5191
492990,1.7165,2.5215
492991,1.7157,2.5207
492992,1.7149,2.5215
492993,1.7149,2.5199
492994,1.7149,2.5199
492995,1.7157,2.5215
492996,1.7189,2.5191
492997,1.7149,2.5183
492998,1.7189,2.5199
492999,1.7149,2.5336
493000,1.7149,2.5215
493001,1.7141,2.5183
493002,1.7149,2.5199
493003,1.7149,2.5215
493004,1.7149,2.5183
493005,1.7149,2.5199
493006,1.7149,2.5272
493007,1.7149,2.5167
493008,1.7149,2.5199
493009,1.7149,2.5223
493010,1.7157,2.5183
493011,1.7149,2.5143
493012,1.7149,2.5175
493013,1.7133,2.5191
493014,1.7173,2.5167
493015,1.7173,2.5232
493016,1.7149,2.5183
493017,1.7149,2.5232
493018,1.7189,2.5232
493019,1.7149,2.4982
493020,1.7149,2.5183
493021,1.7149,2.5232
493022,1.7149,2.5167
493023,1.7149,2.5199
493024,1.7125,2.5199
493025,1.7149,2.5199
493026,1.7157,2.5256
493027,1.7149,2.5377
493028,1.7149,2.5167
493029,1.7149,2.5167
493030,1.7149,2.5151
493031,1.7157,2.5167
493032,1.7108,2.5232
493033,1.7141,2.5199
493034,1.7149,2.5223
493035,1.7165,2.5215
493036,1.7149,2.5151
493037,1.7149,2.5199
493038,1.7141,2.5175
493039,1.7141,2.5199
493040,1.7149,2.5272
493041,1.7149,2.5127
493042,1.7149,2.5183
493043,1.7149,2.5232
493044,1.7165,2.5199
493045,1.7149,2.5223
493046,1.7149,2.5191
493047,1.7141,2.5215
493048,1.7149,2.5248
493049,1.7149,2.5232
493050,1.7149,2.5223
493051,1.7165,2.5377
493052,1.7125,2.5215
493053,1.7221,2.5223
493054,1.7149,2.5207
493055,1.7149,2.5215
493056,1.7149,2.5232
493057,1.7149,2.5215
493058,1.7149,2.5215
493059,1.7157,2.5232
493060,1.7141,2.5199
493061,1.7165,2.5240
493062,1.7165,2.5183
493063,1.7149,2.5215
493064,1.7149,2.5248
493065,1.7181,2.5232
493066,1.7141,2.5240
493067,1.7108,2.5248
493068,1.7141,2.5199
493069,1.7173,2.5207
493070,1.7157,2.5232
493071,1.7125,2.5248
493072,1.7149,2.5159
493073,1.7173,2.5232
493074,1.7165,2.5232
493075,1.7165,2.5328
493076,1.7149,2.5232
493077,1.7149,2.5264
493078,1.7149,2.5256
493079,1.7165,2.5256
493080,1.7149,2.5223
493081,1.7157,2.5272
493082,1.7157,2.5223
493083,1.7165,2.5256
493084,1.7165,2.5280
493085,1.7149,2.5232
493086,1.7157,2.5264
493087,1.7189,2.5256
493088,1.7157,2.5240
493089,1.7157,2.5232
493090,1.7149,2.5191
493091,1.7149,2.5232
493092,1.7149,2.5248
493093,1.7149,2.5248
493094,1.7149,2.5256
493095,1.7149,2.5264
493096,1.7165,2.5232
493097,1.7173,2.5256
493098,1.7181,2.5272
493099,1.7157,2.5320
493100,1.7181,2.5272
493101,1.7173,2.5264
493102,1.7157,2.5296
493103,1.7149,2.5256
493104,1.7181,2.5256
493105,1.7173,2.5256
493106,1.7149,2.5272
493107,1.7173,2.5280
493108,1.7157,2.5264
493109,1.7157,2.5256
493110,1.7149,2.5272
493111,1.7165,2.5248
493112,1.7173,2.5232
493113,1.7149,2.5248
493114,1.7173,2.5280
493115,1.7149,2.5272
493116,1.7149,2.5328
493117,1.7165,2.5256
493118,1.7173,2.5264
493119,1.7173,2.5256
493120,1.7173,2.5248
493121,1.7157,2.5248
493122,1.7165,2.5288
493123,1.7173,2.5272
493124,1.7149,2.5393
493125,1.7189,2.5272
493126,1.7165,2.5272
493127,1.7157,2.5240
493128,1.7149,2.5272
493129,1.7173,2.5264
493130,1.7157,2.5280
493131,1.7181,2.5264
493132,1.7157,2.5280
493133,1.7173,2.5264
493134,1.7173,2.5280
493135,1.7189,2.5280
493136,1.7157,2.5215
493137,1.7205,2.5280
493138,1.7157,2.5256
493139,1.7157,2.5280
493140,1.7157,2.5232
493141,1.7173,2.5280
493142,1.7149,2.5280
493143,1.7149,2.5280
493144,1.7173,2.5280
493145,1.7157,2.5288
493146,1.7189,2.5328
493147,1.7149,2.5288
493148,1.7173,2.5280
493149,1.7149,2.5256
493150,1.7165,2.5280
493151,1.7189,2.5280
493152,1.7173,2.5360
493153,1.7149,2.5296
493154,1.7157,2.5256
493155,1.7189,2.5280
493156,1.7157,2.5328
493157,1.7189,2.5312
493158,1.7157,2.5288
493159,1.7149,2.5288
493160,1.7141,2.5264
493161,1.7141,2.5264
493162,1.7415,2.5199
493163,1.7173,2.5272
493164,1.7149,2.5296
493165,1.7149,2.5288
493166,1.7141,2.5280
493167,1.7157,2.5280
493168,1.7189,2.5280
493169,1.7205,2.5296
493170,1.7149,2.5312
493171,1.7165,2.5288
493172,1.7165,2.5280
493173,1.7149,2.5272
493174,1.7157,2.5304
493175,1.7149,2.5312
493176,1.7197,2.5272
493177,1.7149,2.5304
493178,1.7181,2.5296
493179,1.7149,2.5272
493180,1.7173,2.5296
493181,1.7149,2.5312
493182,1.7157,2.5393
493183,1.7149,2.5280
493184,1.7149,2.5272
493185,1.7157,2.5272
493186,1.7173,2.5272
493187,1.7165,2.5280
493188,1.7036,2.5272
493189,1.7157,2.5280
493190,1.7157,2.5288
493191,1.7173,2.5288
493192,1.7197,2.5280
493193,1.7165,2.5320
493194,1.7173,2.5377
493195,1.7173,2.5288
493196,1.7141,2.5352
493197,1.7181,2.5393
493198,1.7197,2.5312
493199,1.7157,2.5320
493200,1.7157,2.5296
493201,1.7149,2.5296
493202,1.7165,2.5272
493203,1.7189,2.5312
493204,1.7149,2.5328
493205,1.7165,2.5288
493206,1.7149,2.5272
493207,1.7189,2.5320
493208,1.7157,2.5336
493209,1.7149,2.5352
493210,1.7052,2.5296
493211,1.7197,2.5304
493212,1.7197,2.5320
493213,1.7149,2.5288
493214,1.7165,2.5272
493215,1.7060,2.5320
493216,1.7157,2.5304
493217,1.7173,2.5288
493218,1.7149,2.5385
493219,1.7221,2.5328
493220,1.7076,2.5328
493221,1.7157,2.5296
493222,1.7221,2.5232
493223,1.7165,2.5320
493224,1.7173,2.5320
493225,1.7157,2.5312
493226,1.7205,2.5320
493227,1.7237,2.5344
493228,1.7205,2.5352
493229,1.7165,2.5296
493230,1.7189,2.5320
493231,1.7133,2.5320
493232,1.7197,2.5312
493233,1.7221,2.5336
493234,1.7318,2.5280
493235,1.7165,2.5401
493236,1.7197,2.5328
493237,1.7221,2.5377
493238,1.7165,2.5344
493239,1.7157,2.5328
493240,1.7294,2.5344
493241,1.7253,2.5377
493242,1.7149,2.5328
493243,1.7189,2.5288
493244,1.7173,2.5344
493245,1.7197,2.5312
493246,1.7149,2.5312
493247,1.7149,2.5360
493248,1.7165,2.5368
493249,1.7189,2.5360
493250,1.7189,2.5352
493251,1.7149,2.5360
493252,1.7165,2.5352
493253,1.7197,2.5288
493254,1.7205,2.5344
493255,1.7205,2.5360
493256,1.7173,2.5377
493257,1.7165,2.5360
493258,1.7189,2.5352
493259,1.7173,2.5360
493260,1.7052,2.5360
493261,1.7334,2.5352
493262,1.7229,2.5344
493263,1.7173,2.5360
493264,1.7149,2.5312
493265,1.7149,2.5352
493266,1.7197,2.5328
493267,1.7157,2.5336
493268,1.7125,2.5344
493269,1.7108,2.5328
493270,1.7165,2.5377
493271,1.7181,2.5320
493272,1.7189,2.5320
493273,1.7197,2.5352
493274,1.7165,2.5377
493275,1.7189,2.5328
493276,1.7181,2.5344
493277,1.7149,2.5352
493278,1.7149,2.5352
493279,1.7173,2.5360
493280,1.7213,2.5360
493281,1.7197,2.5352
493282,1.7197,2.5328
493283,1.7149,2.5393
493284,1.7229,2.5385
493285,1.7197,2.5368
493286,1.7197,2.5360
493287,1.7173,2.5377
493288,1.7149,2.5344
493289,1.7205,2.5385
493290,1.7149,2.5360
493291,1.7165,2.5312
493292,1.7229,2.5360
493293,1.7165,2.5368
493294,1.7165,2.5360
493295,1.7270,2.5393
493296,1.7149,2.5393
493297,1.7221,2.5385
493298,1.7173,2.5377
493299,1.7197,2.5360
493300,1.7189,2.5385
493301,1.7149,2.5393
493302,1.7221,2.5360
493303,1.7229,2.5360
493304,1.7229,2.5360
493305,1.7302,2.5377
493306,1.7165,2.5377
493307,1.7173,2.5393
493308,1.7205,2.5377
493309,1.7157,2.5360
493310,1.7189,2.5360
493311,1.7229,2.5377
493312,1.7189,2.5360
493313,1.7205,2.5393
493314,1.7278,2.5385
493315,1.7173,2.5360
493316,1.7173,2.5393
493317,1.7149,2.5385
493318,1.7173,2.5360
493319,1.7149,2.5385
493320,1.7205,2.5393
493321,1.7189,2.5393
493322,1.7173,2.5352
493323,1.7165,2.5377
493324,1.7189,2.5385
493325,1.7141,2.5377
493326,1.7173,2.5352
493327,1.7229,2.5393
493328,1.7197,2.5377
493329,1.7229,2.5393
493330,1.7189,2.5401
493331,1.7205,2.5385
493332,1.7205,2.5393
493333,1.7165,2.5401
493334,1.7197,2.5377
493335,1.7189,2.5377
493336,1.7197,2.5385
493337,1.7221,2.5385
493338,1.7189,2.5393
493339,1.7181,2.5401
493340,1.7181,2.5401
493341,1.7205,2.5401
493342,1.7221,2.5393
493343,1.7157,2.5401
493344,1.7237,2.5385
493345,1.7197,2.5401
493346,1.7237,2.5401
493347,1.7165,2.5401
493348,1.7205,2.5401
493349,1.7149,2.5401
493350,1.7237,2.5368
493351,1.7221,2.5401
493352,1.7149,2.5377
493353,1.7189,2.5417
493354,1.7181,2.5360
493355,1.7213,2.5401
493356,1.7181,2.5393
493357,1.7213,2.5393
493358,1.7253,2.5385
493359,1.7253,2.5401
493360,1.7253,2.5393
493361,1.7181,2.5401
493362,1.7213,2.5401
493363,1.7253,2.5401
493364,1.7165,2.5401
493365,1.7286,2.5409
493366,1.7165,2.5320
493367,1.7157,2.5401
493368,1.7221,2.5433
493369,1.7197,2.5377
493370,1.7221,2.5368
493371,1.7197,2.5393
493372,1.7197,2.5401
493373,1.7197,2.5304
493374,1.7205,2.5425
493375,1.7237,2.5401
493376,1.7221,2.5377
493377,1.7173,2.5425
493378,1.7189,2.5401
493379,1.7181,2.5393
493380,1.7221,2.5401
493381,1.7197,2.5401
493382,1.7221,2.5546
493383,1.7221,2.5401
493384,1.7165,2.5401
493385,1.7205,2.5401
493386,1.7221,2.5401
493387,1.7205,2.5401
493388,1.7189,2.5401
493389,1.7173,2.5417
493390,1.7197,2.5393
493391,1.7229,2.5401
493392,1.7181,2.5401
493393,1.7173,2.5409
493394,1.7197,2.5417
493395,1.7262,2.5401
493396,1.7237,2.5296
493397,1.7189,2.5425
493398,1.7197,2.5401
493399,1.7197,2.5385
493400,1.7181,2.5570
493401,1.7189,2.5417
493402,1.7197,2.5401
493403,1.7237,2.5417
493404,1.7205,2.5401
493405,1.7229,2.5417
493406,1.7205,2.5401
493407,1.7205,2.5401
493408,1.7237,2.5401
493409,1.7253,2.5425
493410,1.7253,2.5401
493411,1.7205,2.5425
493412,1.7189,2.5409
493413,1.7197,2.5449
493414,1.7221,2.5401
493415,1.7229,2.5409
493416,1.7237,2.5425
493417,1.7245,2.5401
493418,1.7237,2.5457
493419,1.7253,2.5401
493420,1.7286,2.5377
493421,1.7245,2.5409
493422,1.7165,2.5554
493423,1.7221,2.5441
493424,1.7245,2.5409
493425,1.7229,2.5417
493426,1.7157,2.5409
493427,1.7245,2.5417
493428,1.7229,2.5409
493429,1.7165,2.5417
493430,1.7221,2.5675
493431,1.7237,2.5425
493432,1.7221,2.5417
493433,1.7189,2.5449
493434,1.7253,2.5457
493435,1.7173,2.5417
493436,1.7205,2.5570
493437,1.7205,2.5425
493438,1.7229,2.5417
493439,1.7205,2.5417
493440,1.7237,2.5433
493441,1.7253,2.5473
493442,1.7237,2.5425
493443,1.7189,2.5441
493444,1.7270,2.5457
493445,1.7294,2.5425
493446,1.7189,2.5433
493447,1.7229,2.5457
493448,1.7205,2.5425
493449,1.7262,2.5441
493450,1.7221,2.5401
493451,1.7237,2.5836
493452,1.7270,2.5425
493453,1.7213,2.5417
493454,1.7262,2.5401
493455,1.7253,2.5433
493456,1.7253,2.5288
493457,1.7221,2.5401
493458,1.7221,2.5441
493459,1.7253,2.5457
493460,1.7237,2.5449
493461,1.7197,2.5538
493462,1.7262,2.5401
493463,1.7253,2.5409
493464,1.7253,2.5441
493465,1.7197,2.5465
493466,1.7262,2.5288
493467,1.7221,2.5393
493468,1.7294,2.5433
493469,1.7253,2.5441
493470,1.7286,2.5425
493471,1.7221,2.5296
493472,1.7262,2.5449
493473,1.7221,2.5441
493474,1.7237,2.5441
493475,1.7229,2.5417
493476,1.7197,2.5449
493477,1.7229,2.5457
493478,1.7205,2.5248
493479,1.7197,2.5522
493480,1.7237,2.5465
493481,1.7237,2.5457
493482,1.7278,2.5457
493483,1.7173,2.5425
493484,1.7205,2.5530
493485,1.7221,2.5457
493486,1.7253,2.5505
493487,1.7237,2.5489
493488,1.7229,2.5441
493489,1.7221,2.5441
493490,1.7278,2.5489
493491,1.7253,2.5449
493492,1.7253,2.5473
493493,1.7253,2.5481
493494,1.7253,2.5473
493495,1.7205,2.5449
493496,1.7229,2.5449
493497,1.7205,2.5715
493498,1.7237,2.5409
493499,1.7270,2.5659
493500,1.7253,2.5465
493501,1.7237,2.5401
493502,1.7245,2.5441
493503,1.7270,2.5457
493504,1.7189,2.5481
493505,1.7221,2.5457
493506,1.7262,2.5457
493507,1.7270,2.5497
493508,1.7262,2.5457
493509,1.7262,2.5651
493510,1.7189,2.5473
493511,1.7213,2.5755
493512,1.7237,2.5441
493513,1.7270,2.5457
493514,1.7270,2.5425
493515,1.7237,2.5457
493516,1.7270,2.5401
493517,1.7229,2.5465
493518,1.7229,2.5457
493519,1.7237,2.5610
493520,1.7270,2.5473
493521,1.7262,2.5481
493522,1.7253,2.5449
493523,1.7270,2.5489
493524,1.7253,2.5441
493525,1.7270,2.5505
493526,1.7237,2.5481
493527,1.7253,2.5272
493528,1.7197,2.5546
493529,1.7302,2.5457
493530,1.7294,2.5481
493531,1.7270,2.5449
493532,1.7245,2.5489
493533,1.7229,2.5240
493534,1.7326,2.5457
493535,1.7237,2.5417
493536,1.7229,2.5473
493537,1.7237,2.5489
493538,1.7253,2.5505
493539,1.7270,2.5514
493540,1.7245,2.5433
493541,1.7253,2.5473
493542,1.7205,2.5489
493543,1.7270,2.5449
493544,1.7237,2.5522
493545,1.7221,2.5457
493546,1.7270,2.5489
493547,1.7205,2.5433
493548,1.7294,2.5457
493549,1.7262,2.5481
493550,1.7270,2.5457
493551,1.7229,2.5465
493552,1.7237,2.5505
493553,1.7302,2.5489
493554,1.7237,2.5481
493555,1.7237,2.5473
493556,1.7270,2.5489
493557,1.7237,2.5489
493558,1.7237,2.5489
493559,1.7205,2.5675
493560,1.7278,2.5505
493561,1.7270,2.5505
493562,1.7237,2.5425
493563,1.7221,2.5481
493564,1.7229,2.5497
493565,1.7286,2.5497
493566,1.7245,2.5449
493567,1.7181,2.5457
493568,1.7278,2.5481
493569,1.7205,2.5505
493570,1.7221,2.5489
493571,1.7245,2.5505
493572,1.7253,2.5489
493573,1.7237,2.5505
493574,1.7245,2.5481
493575,1.7237,2.5530
493576,1.7229,2.5473
493577,1.7181,2.5505
493578,1.7262,2.5489
493579,1.7278,2.5546
493580,1.7237,2.5481
493581,1.7278,2.5530
493582,1.7197,2.5473
493583,1.7229,2.5514
493584,1.7253,2.5489
493585,1.7221,2.5417
493586,1.7237,2.5514
493587,1.7197,2.5505
493588,1.7262,2.5505
493589,1.7205,2.5489
493590,1.7205,2.5570
493591,1.7205,2.5505
493592,1.7229,2.5441
493593,1.7270,2.5457
493594,1.7237,2.5514
493595,1.7286,2.5514
493596,1.7262,2.5489
493597,1.7253,2.5522
493598,1.7286,2.5481
493599,1.7237,2.5562
493600,1.7294,2.5514
493601,1.7253,2.5497
493602,1.7262,2.5514
493603,1.7270,2.5522
493604,1.7286,2.5481
493605,1.7229,2.5489
493606,1.7221,2.5505
493607,1.7237,2.5505
493608,1.7253,2.5457
493609,1.7286,2.5505
493610,1.7237,2.5505
493611,1.7237,2.5514
493612,1.7253,2.5522
493613,1.7286,2.5522
493614,1.7229,2.5522
493615,1.7278,2.5505
493616,1.7229,2.5514
493617,1.7270,2.5489
493618,1.7262,2.5522
493619,1.7189,2.5530
493620,1.7237,2.5586
493621,1.7253,2.5473
493622,1.7245,2.5481
493623,1.7253,2.5538
493624,1.7278,2.5530
493625,1.7262,2.5514
493626,1.7278,2.5514
493627,1.7237,2.5522
493628,1.7270,2.5514
493629,1.7237,2.5522
493630,1.7270,2.5489
493631,1.7270,2.5578
493632,1.7237,2.5530
493633,1.7189,2.5514
493634,1.7253,2.5522
493635,1.7253,2.5505
493636,1.7262,2.5522
493637,1.7253,2.5505
493638,1.7278,2.5505
493639,1.7245,2.5505
493640,1.7262,2.5530
493641,1.7237,2.5489
493642,1.7278,2.5441
493643,1.7286,2.5538
493644,1.7237,2.5489
493645,1.7253,2.5538
493646,1.7237,2.5530
493647,1.7270,2.5530
493648,1.7262,2.5586
493649,1.7237,2.5505
493650,1.7245,2.5530
493651,1.7253,2.5514
493652,1.7262,2.5554
493653,1.7237,2.5530
493654,1.7270,2.5546
493655,1.7286,2.5538
493656,1.7253,2.5505
493657,1.7262,2.5538
493658,1.7237,2.5530
493659,1.7294,2.5530
493660,1.7237,2.5546
493661,1.7229,2.5497
493662,1.7237,2.5530
493663,1.7237,2.5554
493664,1.7229,2.5586
493665,1.7278,2.5530
493666,1.7149,2.5522
493667,1.7286,2.5514
493668,1.7294,2.5554
493669,1.7245,2.5522
493670,1.7245,2.5554
493671,1.7237,2.5562
493672,1.7278,2.5530
493673,1.7253,2.5554
493674,1.7262,2.5546
493675,1.7253,2.5554
493676,1.7253,2.5546
493677,1.7245,2.5522
493678,1.7270,2.5522
493679,1.7270,2.5554
493680,1.7262,2.5538
493681,1.7253,2.5586
493682,1.7286,2.5538
493683,1.7205,2.5538
493684,1.7270,2.5546
493685,1.7302,2.5505
493686,1.7286,2.5481
493687,1.7302,2.5570
493688,1.7294,2.5546
493689,1.7262,2.5538
493690,1.7229,2.5546
493691,1.7237,2.5522
493692,1.7278,2.5522
493693,1.7262,2.5530
493694,1.7237,2.5514
493695,1.7278,2.5578
493696,1.7286,2.5570
493697,1.7302,2.5618
493698,1.7407,2.5554
493699,1.7253,2.5554
493700,1.7286,2.5578
493701,1.7253,2.5594
493702,1.7237,2.5554
493703,1.7270,2.5554
493704,1.7278,2.5554
493705,1.7253,2.5570
493706,1.7262,2.5546
493707,1.7302,2.5570
493708,1.7189,2.5538
493709,1.7278,2.5610
493710,1.7286,2.5554
493711,1.7221,2.5570
493712,1.7270,2.5554
493713,1.7294,2.5546
493714,1.7286,2.5538
493715,1.7278,2.5554
493716,1.7286,2.5546
493717,1.7270,2.5570
493718,1.7253,2.5514
493719,1.7262,2.5554
493720,1.7253,2.5554
493721,1.7294,2.5586
493722,1.7294,2.5562
493723,1.7294,2.5546
493724,1.7310,2.5546
493725,1.7253,2.5570
493726,1.7253,2.5473
493727,1.7237,2.5578
493728,1.7237,2.5546
493729,1.7253,2.5570
493730,1.7278,2.5562
493731,1.7116,2.5554
493732,1.7302,2.5586
493733,1.7318,2.5586
493734,1.7149,2.5554
493735,1.7318,2.5570
493736,1.7229,2.5554
493737,1.7270,2.5554
493738,1.7253,2.5554
493739,1.7270,2.5554
493740,1.7253,2.5578
493741,1.7294,2.5570
493742,1.7286,2.5578
493743,1.7270,2.5505
493744,1.7278,2.5578
493745,1.7366,2.5554
493746,1.7302,2.5586
493747,1.7278,2.5578
493748,1.7237,2.5570
493749,1.7302,2.5602
493750,1.7286,2.5586
493751,1.7270,2.5570
493752,1.7286,2.5578
493753,1.7278,2.5570
493754,1.7310,2.5578
493755,1.7278,2.5610
493756,1.7253,2.5610
493757,1.7302,2.5642
493758,1.7294,2.5602
493759,1.7149,2.5586
493760,1.7270,2.5554
493761,1.7278,2.5554
493762,1.7237,2.5554
493763,1.7149,2.5610
493764,1.7407,2.5586
493765,1.7278,2.5570
493766,1.7286,2.5570
493767,1.7390,2.5538
493768,1.7245,2.5602
493769,1.7253,2.5586
493770,1.7334,2.5586
493771,1.7278,2.5586
493772,1.7278,2.5618
493773,1.7253,2.5610
493774,1.7366,2.5586
493775,1.7270,2.5651
493776,1.7334,2.5586
493777,1.7278,2.5578
493778,1.7253,2.5618
493779,1.7286,2.5586
493780,1.7302,2.5562
493781,1.7302,2.5586
493782,1.7149,2.5610
493783,1.7270,2.5570
493784,1.7262,2.5578
493785,1.7270,2.5578
493786,1.7270,2.5602
493787,1.7294,2.5610
493788,1.7237,2.5594
493789,1.7302,2.5618
493790,1.7253,2.5578
493791,1.7302,2.5602
493792,1.7407,2.5626
493793,1.7278,2.5651
493794,1.7286,2.5586
493795,1.7294,2.5554
493796,1.7262,2.5602
493797,1.7302,2.5610
493798,1.7173,2.5586
493799,1.7286,2.5618
493800,1.7294,2.5618
493801,1.7310,2.5578
493802,1.7286,2.5586
493803,1.7294,2.5634
493804,1.7407,2.5602
493805,1.7318,2.5642
493806,1.7286,2.5618
493807,1.7286,2.5610
493808,1.7350,2.5586
493809,1.7286,2.5578
493810,1.7270,2.5602
493811,1.7334,2.5626
493812,1.7318,2.5634
493813,1.7334,2.5618
493814,1.7286,2.5618
493815,1.7270,2.5610
493816,1.7334,2.5642
493817,1.7286,2.5634
493818,1.7237,2.5610
493819,1.7294,2.5602
493820,1.7294,2.5570
493821,1.7310,2.5610
493822,1.7278,2.5594
493823,1.7286,2.5610
493824,1.7318,2.5618
493825,1.7326,2.5602
493826,1.7286,2.5642
493827,1.7318,2.5610
493828,1.7318,2.5618
493829,1.7262,2.5610
493830,1.7318,2.5578
493831,1.7286,2.5586
493832,1.7270,2.5610
493833,1.7270,2.5610
493834,1.7286,2.5457
493835,1.7286,2.5642
493836,1.7294,2.5634
493837,1.7262,2.5610
493838,1.7270,2.5610
493839,1.7294,2.5618
493840,1.7270,2.5610
493841,1.7318,2.5634
493842,1.7302,2.5586
493843,1.7318,2.5586
493844,1.7302,2.5642
493845,1.7253,2.5626
493846,1.7318,2.5642
493847,1.7407,2.5570
493848,1.7302,2.5618
493849,1.7358,2.5618
493850,1.7326,2.5610
493851,1.7366,2.5586
493852,1.7366,2.5586
493853,1.7358,2.5586
493854,1.7382,2.5610
493855,1.7350,2.5618
493856,1.7318,2.5618
493857,1.7334,2.5602
493858,1.7358,2.5812
493859,1.7326,2.5586
493860,1.7366,2.5618
493861,1.7390,2.5642
493862,1.7286,2.5610
493863,1.7423,2.5634
493864,1.7294,2.5618
493865,1.7407,2.5651
493866,1.7358,2.5634
493867,1.7302,2.5642
493868,1.7318,2.5578
493869,1.7407,2.5634
493870,1.7334,2.5667
493871,1.7318,2.5578
493872,1.7407,2.5634
493873,1.7366,2.5626
493874,1.7326,2.5707
493875,1.7294,2.5578
493876,1.7294,2.5634
493877,1.7350,2.5602
493878,1.7286,2.5602
493879,1.7253,2.5618
493880,1.7350,2.5522
493881,1.7326,2.5602
493882,1.7294,2.5586
493883,1.7366,2.5280
493884,1.7326,2.5538
493885,1.7415,2.5651
493886,1.7382,2.5659
493887,1.7318,2.5634
493888,1.7326,2.5626
493889,1.7350,2.5651
493890,1.7326,2.5651
493891,1.7366,2.5602
493892,1.7318,2.5642
493893,1.7302,2.5642
493894,1.7318,2.5651
493895,1.7302,2.5634
493896,1.7302,2.5739
493897,1.7310,2.5651
493898,1.7310,2.5651
493899,1.7302,2.5788
493900,1.7294,2.5659
493901,1.7302,2.5651
493902,1.7302,2.5651
493903,1.7286,2.5659
493904,1.7294,2.5675
493905,1.7302,2.5659
493906,1.7366,2.5675
493907,1.7302,2.5683
493908,1.7358,2.5659
493909,1.7286,2.5667
493910,1.7294,2.5659
493911,1.7350,2.5675
493912,1.7390,2.5771
493913,1.7366,2.5667
493914,1.7326,2.5675
493915,1.7302,2.5747
493916,1.7350,2.5707
493917,1.7407,2.5642
493918,1.7350,2.5659
493919,1.7310,2.5546
493920,1.7334,2.5667
493921,1.7318,2.5578
493922,1.7350,2.5699
493923,1.7334,2.5683
493924,1.7366,2.5683
493925,1.7326,2.5659
493926,1.7358,2.5659
493927,1.7390,2.5707
493928,1.7334,2.5699
493929,1.7342,2.5699
493930,1.7270,2.5739
493931,1.7399,2.5739
493932,1.7334,2.5747
493933,1.7399,2.5731
493934,1.7407,2.5683
493935,1.7407,2.5699
493936,1.7382,2.5763
493937,1.7390,2.5739
493938,1.7366,2.5659
493939,1.7407,2.5747
493940,1.7366,2.5586
493941,1.7350,2.5771
493942,1.7399,2.5788
493943,1.7334,2.5796
493944,1.7407,2.5779
493945,1.7382,2.5788
493946,1.7294,2.5659
493947,1.7399,2.5747
493948,1.7278,2.5941
493949,1.7382,2.5779
493950,1.7399,2.5788
493951,1.7382,2.5554
493952,1.7366,2.5779
493953,1.7390,2.5812
493954,1.7390,2.5747
493955,1.7382,2.5804
493956,1.7415,2.5788
493957,1.7407,2.5489
493958,1.7366,2.5747
493959,1.7399,2.5699
493960,1.7439,2.5731
493961,1.7407,2.5659
493962,1.7399,2.5820
493963,1.7407,2.5868
493964,1.7382,2.5788
493965,1.7439,2.5828
493966,1.7407,2.5844
493967,1.7415,2.5828
493968,1.7415,2.5844
493969,1.7407,2.5828
493970,1.7431,2.5876
493971,1.7431,2.5828
493972,1.7407,2.5997
493973,1.7423,2.5836
493974,1.7431,2.5828
493975,1.7431,2.5860
493976,1.7407,2.5876
493977,1.7407,2.5868
493978,1.7415,2.5876
493979,1.7399,2.5844
493980,1.7407,2.5892
493981,1.7407,2.5941
493982,1.7415,2.5844
493983,1.7511,2.6037
493984,1.7431,2.5860
493985,1.7399,2.5602
493986,1.7407,2.5836
493987,1.7455,2.6053
493988,1.7431,2.5860
493989,1.7487,2.5884
493990,1.7415,2.5860
493991,1.7431,2.5868
493992,1.7407,2.5828
493993,1.7407,2.5844
493994,1.7407,2.5836
493995,1.7463,2.5860
493996,1.7431,2.5876
493997,1.7487,2.5796
493998,1.7423,2.5844
493999,1.7495,2.5989
494000,1.7487,2.5844
494001,1.7495,2.5973
494002,1.7423,2.5876
494003,1.7431,2.5570
494004,1.7415,2.5828
494005,1.7463,2.5828
494006,1.7463,2.5868
494007,1.7447,2.6182
494008,1.7455,2.5844
494009,1.7431,2.5788
494010,1.7431,2.5844
494011,1.7431,2.5957
494012,1.7455,2.5844
494013,1.7463,2.5908
494014,1.7487,2.5868
494015,1.7519,2.5925
494016,1.7463,2.5876
494017,1.7479,2.5812
494018,1.7527,2.5868
494019,1.7511,2.5836
494020,1.7431,2.5868
494021,1.7495,2.5659
494022,1.7495,2.5836
494023,1.7455,2.5860
494024,1.7447,2.5884
494025,1.7455,2.5836
494026,1.7463,2.5876
494027,1.7511,2.5836
494028,1.7519,2.5828
494029,1.7479,2.5860
494030,1.7536,2.5860
494031,1.7463,2.5473
494032,1.7463,2.5820
494033,1.7519,2.5788
494034,1.7495,2.5779
494035,1.7463,2.5796
494036,1.7423,2.5804
494037,1.7439,2.5667
494038,1.7455,2.5828
494039,1.7487,2.5796
494040,1.7439,2.5828
494041,1.7495,2.5812
494042,1.7527,2.5804
494043,1.7463,2.5804
494044,1.7519,2.5796
494045,1.7431,2.5779
494046,1.7471,2.5788
494047,1.7487,2.5804
494048,1.7487,2.5779
494049,1.7431,2.5796
494050,1.7487,2.5763
494051,1.7455,2.5796
494052,1.7415,2.5788
494053,1.7447,2.5941
494054,1.7495,2.5763
494055,1.7471,2.5788
494056,1.7455,2.5788
494057,1.7447,2.5788
494058,1.7487,2.5779
494059,1.7455,2.5796
494060,1.7527,2.5788
494061,1.7511,2.5804
494062,1.7487,2.5788
494063,1.7511,2.5788
494064,1.7495,2.5747
494065,1.7511,2.5779
494066,1.7536,2.5731
494067,1.7415,2.5747
494068,1.7479,2.5788
494069,1.7463,2.5771
494070,1.7463,2.5771
494071,1.7527,2.5747
494072,1.7487,2.5763
494073,1.7503,2.5788
494074,1.7503,2.5715
494075,1.7487,2.5739
494076,1.7519,2.5763
494077,1.7511,2.5771
494078,1.7527,2.5788
494079,1.7576,2.5788
494080,1.7536,2.5779
494081,1.7471,2.5699
494082,1.7527,2.5771
494083,1.7544,2.5763
494084,1.7536,2.5755
494085,1.7536,2.5788
494086,1.7527,2.5747
494087,1.7503,2.5747
494088,1.7527,2.5731
494089,1.7544,2.5755
494090,1.7527,2.5771
494091,1.7487,2.5771
494092,1.7495,2.5715
494093,1.7495,2.5763
494094,1.7536,2.5747
494095,1.7511,2.5739
494096,1.7560,2.5747
494097,1.7536,2.5771
494098,1.7544,2.5771
494099,1.7511,2.5763
494100,1.7544,2.5739
494101,1.7495,2.5788
494102,1.7552,2.5747
494103,1.7519,2.5788
494104,1.7560,2.5755
494105,1.7527,2.5755
494106,1.7495,2.5788
494107,1.7527,2.5707
494108,1.7544,2.5699
494109,1.7552,2.5763
494110,1.7544,2.5796
494111,1.7576,2.5763
494112,1.7536,2.5779
494113,1.7544,2.5868
494114,1.7544,2.5739
494115,1.7552,2.5771
494116,1.7576,2.5771
494117,1.7544,2.5836
494118,1.7576,2.5659
494119,1.7608,2.5771
494120,1.7584,2.5747
494121,1.7576,2.5731
494122,1.7560,2.5747
494123,1.7560,2.5731
494124,1.7544,2.5747
494125,1.7584,2.5804
494126,1.7560,2.5747
494127,1.7592,2.5771
494128,1.7576,2.5771
494129,1.7511,2.5747
494130,1.7536,2.5691
494131,1.7527,2.5788
494132,1.7560,2.5683
494133,1.7624,2.5667
494134,1.7560,2.5755
494135,1.7552,2.5763
494136,1.7592,2.5731
494137,1.7552,2.5763
494138,1.7552,2.5731
494139,1.7560,2.5747
494140,1.7584,2.5779
494141,1.7560,2.5747
494142,1.7576,2.5747
494143,1.7536,2.5747
494144,1.7592,2.5747
494145,1.7560,2.5755
494146,1.7536,2.5763
494147,1.7552,2.5779
494148,1.7584,2.5771
494149,1.7560,2.5771
494150,1.7608,2.5763
494151,1.7608,2.5820
494152,1.7560,2.5731
494153,1.7576,2.5683
494154,1.7592,2.5771
494155,1.7568,2.5731
494156,1.7624,2.5739
494157,1.7560,2.5804
494158,1.7632,2.5755
494159,1.7568,2.5771
494160,1.7576,2.5763
494161,1.7560,2.5747
494162,1.7576,2.5779
494163,1.7592,2.5763
494164,1.7584,2.5779
494165,1.7592,2.5788
494166,1.7616,2.5779
494167,1.7576,2.5779
494168,1.7600,2.5739
494169,1.7584,2.5812
494170,1.7608,2.5755
494171,1.7592,2.5779
494172,1.7584,2.5731
494173,1.7592,2.5763
494174,1.7527,2.5771
494175,1.7576,2.5659
494176,1.7560,2.5747
494177,1.7608,2.5844
494178,1.7608,2.5763
494179,1.7576,2.5779
494180,1.7592,2.5763
494181,1.7608,2.5788
494182,1.7592,2.5788
494183,1.7576,2.5715
494184,1.7801,2.5779
494185,1.7544,2.5747
494186,1.7640,2.5788
494187,1.7568,2.5796
494188,1.7584,2.5796
494189,1.7616,2.5804
494190,1.7552,2.5812
494191,1.7544,2.5788
494192,1.7592,2.5788
494193,1.7560,2.5796
494194,1.7576,2.5844
494195,1.7592,2.5739
494196,1.7624,2.5796
494197,1.7592,2.5812
494198,1.7664,2.5804
494199,1.7584,2.5812
494200,1.7608,2.5804
494201,1.7624,2.5828
494202,1.7536,2.5812
494203,1.7616,2.5836
494204,1.7640,2.5812
494205,1.7560,2.5812
494206,1.7648,2.5828
494207,1.7608,2.5925
494208,1.7624,2.5828
494209,1.7584,2.5836
494210,1.7608,2.5892
494211,1.7560,2.5844
494212,1.7834,2.5876
494213,1.7584,2.5876
494214,1.7648,2.5763
494215,1.7624,2.5844
494216,1.7640,2.5828
494217,1.7640,2.5916
494218,1.7608,2.5844
494219,1.7568,2.5860
494220,1.7608,2.5892
494221,1.7656,2.5884
494222,1.7592,2.5884
494223,1.7552,2.5892
494224,1.7584,2.5908
494225,1.7616,2.5860
494226,1.7560,2.5900
494227,1.7592,2.5844
494228,1.7664,2.5908
494229,1.7624,2.5933
494230,1.7568,2.5892
494231,1.7624,2.5900
494232,1.7632,2.5916
494233,1.7592,2.5868
494234,1.7640,2.5908
494235,1.7648,2.5892
494236,1.7656,2.5916
494237,1.7616,2.5828
494238,1.7648,2.5876
494239,1.7640,2.5916
494240,1.7495,2.5908
494241,1.7584,2.5916
494242,1.7624,2.5916
494243,1.7656,2.5933
494244,1.7648,2.5916
494245,1.7608,2.5933
494246,1.7656,2.5925
494247,1.7656,2.5933
494248,1.7584,2.5925
494249,1.7584,2.5916
494250,1.7600,2.5933
494251,1.7624,2.5916
494252,1.7616,2.5925
494253,1.7495,2.5925
494254,1.7648,2.5933
494255,1.7616,2.5916
494256,1.7616,2.5933
494257,1.7664,2.5925
494258,1.7608,2.5941
494259,1.7624,2.5876
494260,1.7664,2.5965
494261,1.7624,2.5925
494262,1.7785,2.5957
494263,1.7632,2.5916
494264,1.7664,2.5965
494265,1.7584,2.5957
494266,1.7648,2.5965
494267,1.7664,2.5965
494268,1.7705,2.5957
494269,1.7664,2.6005
494270,1.7640,2.6029
494271,1.7648,2.5941
494272,1.7753,2.6029
494273,1.7664,2.6053
494274,1.7664,2.6005
494275,1.7616,2.6134
494276,1.7592,2.6037
494277,1.7616,2.6045
494278,1.7527,2.6062
494279,1.7624,2.6086
494280,1.7648,2.6053
494281,1.7640,2.6102
494282,1.7713,2.6045
494283,1.7656,2.6070
494284,1.7640,2.6134
494285,1.7624,2.6037
494286,1.7616,2.6118
494287,1.7632,2.6094
494288,1.7664,2.6102
494289,1.7664,2.6126
494290,1.7664,2.6142
494291,1.7616,2.6134
494292,1.7648,2.6158
494293,1.7624,2.6150
494294,1.7463,2.6174
494295,1.7664,2.6158
494296,1.7664,2.6166
494297,1.7705,2.6223
494298,1.7640,2.6182
494299,1.7745,2.6174
494300,1.7681,2.6174
494301,1.7689,2.6190
494302,1.7616,2.6174
494303,1.7640,2.6182
494304,1.7664,2.6190
494305,1.7632,2.6182
494306,1.7624,2.6174
494307,1.7640,2.6174
494308,1.7761,2.6199
494309,1.7624,2.6223
494310,1.7664,2.6199
494311,1.7673,2.6215
494312,1.7664,2.6255
494313,1.7656,2.6263
494314,1.7664,2.6215
494315,1.7592,2.6247
494316,1.7640,2.6279
494317,1.7656,2.6255
494318,1.7664,2.6295
494319,1.7640,2.6287
494320,1.7632,2.6295
494321,1.7664,2.6279
494322,1.7616,2.6279
494323,1.7664,2.6295
494324,1.7664,2.6319
494325,1.7673,2.6311
494326,1.7664,2.6376
494327,1.7664,2.6344
494328,1.7664,2.6327
494329,1.7640,2.6327
494330,1.7608,2.6384
494331,1.7664,2.6416
494332,1.7664,2.6424
494333,1.7769,2.6432
494334,1.7705,2.6473
494335,1.7656,2.6464
494336,1.7664,2.6553
494337,1.7640,2.6610
494338,1.7664,2.6690
494339,1.7664,2.6811
494340,1.7664,2.6900
494341,1.7705,2.6964
494342,1.7697,2.7101
494343,1.7705,2.7206
494344,1.7745,2.7343
494345,1.7785,2.7464
494346,1.7673,2.7585
494347,1.7753,2.7722
494348,1.7713,2.7859
494349,1.7947,2.7971
494350,1.7737,2.7979
494351,1.7818,2.8237
494352,1.7785,2.8358
494353,1.7801,2.8519
494354,1.7810,2.8640
494355,1.7810,2.8826
494356,1.7818,2.8874
494357,1.7721,2.9092
494358,1.7906,2.9229
494359,1.7906,2.9374
494360,1.7906,2.9478
494361,1.7914,2.9615
494362,1.7938,2.9712
494363,1.7979,2.9841
494364,1.7963,2.9922
494365,1.7979,3.0099
494366,1.7971,3.0155
494367,1.7963,3.0341
494368,1.8043,3.0349
494369,1.8003,3.0550
494370,1.8043,3.0679
494371,1.8067,3.0736
494372,1.8067,3.0816
494373,1.8027,3.0929
494374,1.8075,3.1380
494375,1.8180,3.0953
494376,1.8172,3.0816
494377,1.8132,3.1308
494378,1.8140,3.1332
494379,1.8124,3.1453
494380,1.8172,3.1308
494381,1.8188,3.1590
494382,1.8180,3.1686
494383,1.8172,3.1759
494384,1.8196,3.1823
494385,1.8188,3.1904
494386,1.8172,3.1775
494387,1.8188,3.1864
494388,1.8180,3.2081
494389,1.8172,3.2154
494390,1.8180,3.2162
494391,1.8180,3.2226
494392,1.8180,3.2130
494393,1.8156,3.2323
494394,1.8188,3.2371
494395,1.8188,3.2460
494396,1.8172,3.2275
494397,1.8196,3.2508
494398,1.8180,3.2581
494399,1.8180,3.2565
494400,1.8253,3.2613
494401,1.8180,3.2766
494402,1.8172,3.3000
494403,1.8180,3.2742
494404,1.8172,3.2726
494405,1.8180,3.3000
494406,1.8140,3.2823
494407,1.8180,3.2887
494408,1.8156,3.2887
494409,1.8140,3.2887
494410,1.8132,3.2968
494411,1.8108,3.3000
494412,1.8092,3.3000
494413,1.8148,3.3000
494414,1.8132,3.3000
494415,1.8092,3.3000
494416,1.8067,3.3000
494417,1.8092,3.3000
494418,1.8108,3.3000
494419,1.8043,3.3000
494420,1.8067,3.3000
494421,1.8059,3.3000
494422,1.8084,3.3000
494423,1.8059,3.3000
494424,1.8059,3.3000
494425,1.8100,3.3000
494426,1.8035,3.3000
494427,1.8011,3.3000
494428,1.8043,3.3000
494429,1.8035,3.3000
494430,1.8027,3.3000
494431,1.8043,3.3000
494432,1.8035,3.3000
494433,1.8043,3.3000
494434,1.7995,3.3000
494435,1.7963,3.3000
494436,1.7971,3.3000
494437,1.8027,3.3000
494438,1.8003,3.3000
494439,1.7979,3.3000
494440,1.7947,3.3000
494441,1.7947,3.3000
494442,1.7955,3.3000
494443,1.7947,3.3000
494444,1.7930,3.3000
494445,1.7995,3.3000
494446,1.7971,3.3000
494447,1.7922,3.3000
494448,1.7930,3.3000
494449,1.7922,3.3000
494450,1.7922,3.3000
494451,1.7947,3.3000
494452,1.7930,3.3000
494453,1.7930,3.3000
494454,1.7914,3.3000
494455,1.7930,3.3000
494456,1.7922,3.3000
494457,1.7906,3.3000
494458,1.7914,3.3000
494459,1.7922,3.3000
494460,1.7995,3.3000
494461,1.7882,3.3000
494462,1.7914,3.3000
494463,1.7922,3.3000
494464,1.7914,3.3000
494465,1.7922,3.3000
494466,1.7898,3.3000
494467,1.7914,3.3000
494468,1.7898,3.3000
494469,1.7914,3.3000
494470,1.7922,3.3000
494471,1.7882,3.3000
494472,1.7874,3.3000
494473,1.7898,3.3000
494474,1.7850,3.3000
494475,1.7914,3.3000
494476,1.7882,3.3000
494477,1.7898,3.3000
494478,1.7898,3.3000
494479,1.7906,3.3000
494480,1.7834,3.3000
494481,1.7922,3.3000
494482,1.7850,3.3000
494483,1.7834,3.3000
494484,1.7842,3.3000
494485,1.7882,3.3000
494486,1.7850,3.3000
494487,1.7842,3.3000
494488,1.7914,3.3000
494489,1.7882,3.3000
494490,1.7834,3.3000
494491,1.7882,3.3000
494492,1.7801,3.3000
494493,1.7850,3.3000
494494,1.7882,3.3000
494495,1.7801,3.3000
494496,1.7801,3.3000
494497,1.7785,3.3000
494498,1.7834,3.3000
494499,1.7874,3.3000
494500,1.7834,3.3000
494501,1.7793,3.3000
494502,1.7745,3.3000
494503,1.7834,3.3000
494504,1.7842,3.3000
494505,1.7801,3.3000
494506,1.7801,3.3000
494507,1.7793,3.3000
494508,1.7793,3.3000
494509,1.7793,3.3000
494510,1.7826,3.3000
494511,1.7785,3.3000
494512,1.7801,3.2903
494513,1.7793,3.3000
494514,1.7810,3.3000
494515,1.7810,3.3000
494516,1.7850,3.3000
494517,1.7834,3.3000
494518,1.7810,3.3000
494519,1.7842,3.3000
494520,1.7801,3.3000
494521,1.7785,3.3000
494522,1.7785,3.3000
494523,1.7914,3.3000
494524,1.7826,3.3000
494525,1.7834,3.3000
494526,1.7834,3.3000
494527,1.7801,3.3000
494528,1.7826,3.2976
494529,1.7810,3.2968
494530,1.7842,3.2927
494531,1.7761,3.2879
494532,1.7842,3.2871
494533,1.7810,3.2549
494534,1.7801,3.2855
494535,1.7793,3.2871
494536,1.7834,3.2790
494537,1.7801,3.2879
494538,1.7842,3.2621
494539,1.7801,3.2710
494540,1.7866,3.2863
494541,1.7810,3.2887
494542,1.7793,3.2790
494543,1.7801,3.2742
494544,1.7810,3.2758
494545,1.7785,3.2799
494546,1.7842,3.2718
494547,1.7810,3.2702
494548,1.7818,3.2662
494549,1.7818,3.2702
494550,1.7818,3.2645
494551,1.7834,3.2637
494552,1.7801,3.2621
494553,1.7801,3.2492
494554,1.7890,3.2710
494555,1.7850,3.2621
494556,1.7818,3.2597
494557,1.7850,3.2541
494558,1.7834,3.2573
494559,1.7842,3.2404
494560,1.7858,3.2516
494561,1.7834,3.2549
494562,1.7818,3.2484
494563,1.7801,3.2452
494564,1.7810,3.2492
494565,1.7818,3.2460
494566,1.7866,3.2444
494567,1.7874,3.2371
494568,1.7777,3.2371
494569,1.7818,3.2444
494570,1.7922,3.2323
494571,1.7850,3.2363
494572,1.7858,3.2218
494573,1.7850,3.2452
494574,1.7834,3.2242
494575,1.7801,3.2242
494576,1.7898,3.2202
494577,1.7842,3.2186
494578,1.7866,3.2146
494579,1.7898,3.2114
494580,1.7826,3.2105
494581,1.7858,3.2130
494582,1.7850,3.2105
494583,1.7866,3.1960
494584,1.7834,3.1952
494585,1.7930,3.1872
494586,1.7874,3.1840
494587,1.7826,3.1807
494588,1.7874,3.1678
494589,1.7842,3.1622
494590,1.7842,3.1541
494591,1.7834,3.1453
494592,1.7850,3.1348
494593,1.7834,3.1292
494594,1.7801,3.1090
494595,1.7818,3.1001
494596,1.7810,3.0848
494597,1.7842,3.0776
494598,1.7866,3.0663
494599,1.7793,3.0413
494600,1.7810,3.0179
494601,1.7793,3.0034
494602,1.7801,2.9793
494603,1.7777,2.9551
494604,1.7769,2.9269
494605,1.7761,2.9011
494606,1.7777,2.8600
494607,1.7753,2.8366
494608,1.7705,2.8245
494609,1.7713,2.8229
494610,1.7737,2.8237
494611,1.7793,2.8245
494612,1.7721,2.8294
494613,1.7673,2.8366
494614,1.7713,2.8455
494615,1.7721,2.8608
494616,1.7769,2.8664
494617,1.7721,2.8761
494618,1.7721,2.8793
494619,1.7737,2.9035
494620,1.7689,2.9067
494621,1.7801,2.9261
494622,1.7753,2.9349
494623,1.7769,2.9414
494624,1.7793,2.9551
494625,1.7793,2.9648
494626,1.7777,2.9632
494627,1.7753,2.9905
494628,1.7818,2.9922
494629,1.7801,3.0042
494630,1.7761,3.0131
494631,1.7850,3.0196
494632,1.7818,3.0171
494633,1.7834,3.0445
494634,1.7801,3.0462
494635,1.7850,3.0550
494636,1.7866,3.0639
494637,1.7882,3.0703
494638,1.7914,3.0816
494639,1.7906,3.0977
494640,1.7898,3.1034
494641,1.7922,3.1066
494642,1.7914,3.1082
494643,1.7898,3.1147
494644,1.7922,3.1259
494645,1.7922,3.1332
494646,1.7938,3.1332
494647,1.7979,3.1380
494648,1.7979,3.1509
494649,1.7922,3.1533
494650,1.8003,3.1598
494651,1.8003,3.1799
494652,1.7979,3.1735
494653,1.7979,3.1735
494654,1.8035,3.1823
494655,1.8035,3.1848
494656,1.8035,3.1968
494657,1.8035,3.2009
494658,1.8019,3.2097
494659,1.8075,3.2097
494660,1.8075,3.2130
494661,1.8051,3.2162
494662,1.8067,3.2218
494663,1.8075,3.2242
494664,1.8100,3.2283
494665,1.8043,3.2371
494666,1.8075,3.2396
494667,1.8140,3.2371
494668,1.8156,3.2492
494669,1.8108,3.2702
494670,1.8132,3.2597
494671,1.8100,3.2589
494672,1.8164,3.2653
494673,1.8148,3.2613
494674,1.8108,3.2734
494675,1.8075,3.2702
494676,1.8124,3.2766
494677,1.8108,3.2863
494678,1.8124,3.2879
494679,1.8156,3.2936
494680,1.8108,3.2887
494681,1.8140,3.2960
494682,1.8092,3.3000
494683,1.8132,3.3000
494684,1.8172,3.3000
494685,1.8100,3.3000
494686,1.8108,3.3000
494687,1.8132,3.3000
494688,1.8100,3.3000
494689,1.8124,3.3000
494690,1.8132,3.3000
494691,1.8075,3.3000
494692,1.8100,3.3000
494693,1.8132,3.3000
494694,1.8100,3.3000
494695,1.8108,3.3000
494696,1.8132,3.3000
494697,1.8124,3.3000
494698,1.8132,3.3000
494699,1.8067,3.3000
494700,1.8067,3.3000
494701,1.8067,3.3000
494702,1.8124,3.3000
494703,1.8067,3.3000
494704,1.8124,3.3000
494705,1.8059,3.3000
494706,1.8100,3.3000
494707,1.8059,3.3000
494708,1.8140,3.3000
494709,1.8140,3.3000
494710,1.8092,3.3000
494711,1.8075,3.3000
494712,1.8075,3.3000
494713,1.8092,3.3000
494714,1.8051,3.3000
494715,1.8100,3.3000
494716,1.8132,3.3000
494717,1.7769,3.3000
494718,1.8140,3.3000
494719,1.8067,3.3000
494720,1.8051,3.3000
494721,1.8059,3.3000
494722,1.8051,3.3000
494723,1.8124,3.3000
494724,1.8043,3.3000
494725,1.8100,3.3000
494726,1.8108,3.3000
494727,1.8067,3.3000
494728,1.8075,3.3000
494729,1.8043,3.3000
494730,1.7938,3.3000
494731,1.8100,3.3000
494732,1.8075,3.3000
494733,1.8156,3.3000
494734,1.8051,3.3000
494735,1.8067,3.3000
494736,1.8051,3.3000
494737,1.8051,3.3000
494738,1.8075,3.3000
494739,1.8156,3.3000
494740,1.8051,3.3000
494741,1.8075,3.3000
494742,1.8084,3.3000
494743,1.8124,3.3000
494744,1.8035,3.3000
494745,1.8180,3.3000
494746,1.8100,3.3000
494747,1.8043,3.3000
494748,1.8043,3.3000
494749,1.8108,3.3000
494750,1.8003,3.3000
494751,1.8067,3.3000
494752,1.7995,3.3000
494753,1.8051,3.3000
494754,1.8035,3.3000
494755,1.8188,3.3000
494756,1.8075,3.3000
494757,1.8067,3.3000
494758,1.8100,3.3000
494759,1.8067,3.3000
494760,1.8092,3.3000
494761,1.8067,3.3000
494762,1.8059,3.3000
494763,1.8027,3.3000
494764,1.8043,3.3000
494765,1.8051,3.3000
494766,1.7810,3.3000
494767,1.8051,3.3000
494768,1.8059,3.3000
494769,1.7906,3.3000
494770,1.8196,3.3000
494771,1.8043,3.3000
494772,1.8059,3.3000
494773,1.8059,3.3000
494774,1.7979,3.3000
494775,1.8035,3.3000
494776,1.8051,3.3000
494777,1.7995,3.3000
494778,1.8051,3.3000
494779,1.8059,3.3000
494780,1.7979,3.3000
494781,1.7979,3.3000
494782,1.8180,3.3000
494783,1.7955,3.3000
494784,1.8003,3.3000
494785,1.7922,3.3000
494786,1.7906,3.3000
494787,1.7947,3.3000
494788,1.8035,3.3000
494789,1.8043,3.3000
494790,1.8011,3.3000
494791,1.7955,3.3000
494792,1.7963,3.3000
494793,1.7842,3.3000
494794,1.7955,3.3000
494795,1.7995,3.3000
494796,1.7995,3.3000
494797,1.7963,3.3000
494798,1.7938,3.3000
494799,1.7930,3.3000
494800,1.7947,3.3000
494801,1.7979,3.3000
494802,1.7971,3.3000
494803,1.8027,3.3000
494804,1.7850,3.3000
494805,1.7979,3.3000
494806,1.7938,3.3000
494807,1.7938,3.3000
494808,1.7955,3.3000
494809,1.7898,3.3000
494810,1.7963,3.3000
494811,1.7938,3.3000
494812,1.7963,3.3000
494813,1.7938,3.3000
494814,1.7930,3.3000
494815,1.7922,3.3000
494816,1.7922,3.3000
494817,1.7938,3.3000
494818,1.7930,3.3000
494819,1.7922,3.3000
494820,1.7938,3.3000
494821,1.7971,3.3000
494822,1.7922,3.3000
494823,1.7793,3.3000
494824,1.7882,3.3000
494825,1.7850,3.3000
494826,1.7898,3.3000
494827,1.7842,3.3000
494828,1.7922,3.3000
494829,1.7882,3.3000
494830,1.7882,3.3000
494831,1.7914,3.3000
494832,1.7914,3.3000
494833,1.7922,3.3000
494834,1.7995,3.3000
494835,1.8043,3.3000
494836,1.7914,3.3000
494837,1.7882,3.3000
494838,1.7922,3.3000
494839,1.7850,3.3000
494840,1.7874,3.3000
494841,1.7938,3.3000
494842,1.7882,3.3000
494843,1.7745,3.3000
494844,1.7874,3.3000
494845,1.7922,3.3000
494846,1.7906,3.3000
494847,1.7874,3.3000
494848,1.7810,3.3000
494849,1.7882,3.3000
494850,1.7906,3.3000
494851,1.7882,3.3000
494852,1.7866,3.3000
494853,1.7890,3.3000
494854,1.7866,3.3000
494855,1.7874,3.3000
494856,1.7850,3.3000
494857,1.7866,3.3000
494858,1.7874,3.3000
494859,1.7745,3.3000
494860,1.7874,3.3000
494861,1.7890,3.3000
494862,1.7882,3.3000
494863,1.7866,3.3000
494864,1.7850,3.3000
494865,1.7850,3.3000
494866,1.7866,3.3000
494867,1.7834,3.3000
494868,1.7850,3.3000
494869,1.7882,3.3000
494870,1.7810,3.3000
494871,1.7850,3.3000
494872,1.7850,3.3000
494873,1.7850,3.3000
494874,1.7874,3.3000
494875,1.7842,3.3000
494876,1.7850,3.3000
494877,1.7826,3.3000
494878,1.7842,3.3000
494879,1.7850,3.3000
494880,1.7882,3.3000
494881,1.7801,3.3000
494882,1.7866,3.3000
494883,1.7850,3.3000
494884,1.7890,3.3000
494885,1.7801,3.3000
494886,1.7777,3.3000
494887,1.7810,3.3000
494888,1.7810,3.3000
494889,1.7810,3.3000
494890,1.7785,3.3000
494891,1.7810,3.3000
494892,1.7721,3.3000
494893,1.7721,3.3000
494894,1.7801,3.3000
494895,1.7793,3.3000
494896,1.7737,3.3000
494897,1.7793,3.3000
494898,1.7810,3.3000
494899,1.7810,3.3000
494900,1.7785,3.3000
494901,1.7810,3.3000
494902,1.7745,3.3000
494903,1.7721,3.3000
494904,1.7874,3.3000
494905,1.7753,3.3000
494906,1.7761,3.3000
494907,1.7777,3.3000
494908,1.7753,3.3000
494909,1.7753,3.3000
494910,1.7785,3.3000
494911,1.7801,3.3000
494912,1.7664,3.3000
494913,1.7737,3.3000
494914,1.7777,3.3000
494915,1.7713,3.3000
494916,1.7753,3.3000
494917,1.7737,3.3000
494918,1.7664,3.3000
494919,1.7737,3.3000
494920,1.7721,3.3000
494921,1.7689,3.3000
494922,1.7664,3.3000
494923,1.7705,3.3000
494924,1.7753,3.3000
494925,1.7664,3.3000
494926,1.7664,3.3000
494927,1.7664,3.3000
494928,1.7689,3.3000
494929,1.7624,3.3000
494930,1.7673,3.3000
494931,1.7664,3.3000
494932,1.7656,3.3000
494933,1.7656,3.3000
494934,1.7624,3.3000
494935,1.7664,3.3000
494936,1.7664,3.3000
494937,1.7664,3.3000
494938,1.7624,3.3000
494939,1.7592,3.3000
494940,1.7632,3.3000
494941,1.7664,3.3000
494942,1.7616,3.3000
494943,1.7664,3.3000
494944,1.7640,3.3000
494945,1.7664,3.3000
494946,1.7656,3.3000
494947,1.7608,3.3000
494948,1.7544,3.3000
494949,1.7632,3.3000
494950,1.7592,3.3000
494951,1.7624,3.3000
494952,1.7576,3.3000
494953,1.7584,3.3000
494954,1.7568,3.3000
494955,1.7624,3.3000
494956,1.7592,3.3000
494957,1.7552,3.3000
494958,1.7624,3.3000
494959,1.7536,3.3000
494960,1.7592,3.3000
494961,1.7536,3.3000
494962,1.7560,3.3000
494963,1.7584,3.3000
494964,1.7592,3.3000
494965,1.7544,3.3000
494966,1.7592,3.3000
494967,1.7463,3.3000
494968,1.7576,3.3000
494969,1.7536,3.3000
494970,1.7576,3.3000
494971,1.7592,3.3000
494972,1.7616,3.3000
494973,1.7519,3.3000
494974,1.7495,3.3000
494975,1.7487,3.3000
494976,1.7511,3.3000
494977,1.7552,3.3000
494978,1.7511,3.3000
494979,1.7495,3.3000
494980,1.7495,3.3000
494981,1.7479,3.3000
494982,1.7544,3.3000
494983,1.7527,3.3000
494984,1.7495,3.3000
494985,1.7527,3.3000
494986,1.7463,3.3000
494987,1.7536,3.3000
494988,1.7519,3.3000
494989,1.7479,3.3000
494990,1.7455,3.3000
494991,1.7527,3.3000
494992,1.7487,3.3000
494993,1.7495,3.3000
494994,1.7423,3.3000
494995,1.7479,3.3000
494996,1.7463,3.3000
494997,1.7439,3.3000
494998,1.7463,3.3000
494999,1.7479,3.3000
495000,1.7487,3.3000
495001,1.7439,3.3000
495002,1.7431,3.3000
495003,1.7415,3.3000
495004,1.7423,3.3000
495005,1.7399,3.3000
495006,1.7423,3.3000
495007,1.7415,3.3000
495008,1.7382,3.3000
495009,1.7407,3.3000
495010,1.7382,3.3000
495011,1.7407,3.3000
495012,1.7407,3.3000
495013,1.7439,3.3000
495014,1.7366,3.3000
495015,1.7390,3.3000
495016,1.7390,3.3000
495017,1.7407,3.3000
495018,1.7407,3.3000
495019,1.7407,3.3000
495020,1.7366,3.3000
495021,1.7382,3.3000
495022,1.7407,3.3000
495023,1.7366,3.3000
495024,1.7407,3.3000
495025,1.7382,3.3000
495026,1.7407,3.3000
495027,1.7358,3.3000
495028,1.7358,3.3000
495029,1.7326,3.3000
495030,1.7407,3.3000
495031,1.7318,3.3000
495032,1.7302,3.3000
495033,1.7407,3.3000
495034,1.7366,3.3000
495035,1.7358,3.3000
495036,1.7286,3.3000
495037,1.7302,3.3000
495038,1.7286,3.3000
495039,1.7302,3.3000
495040,1.7302,3.3000
495041,1.7334,3.3000
495042,1.7318,3.3000
495043,1.7310,3.3000
495044,1.7399,3.3000
495045,1.7302,3.3000
495046,1.7253,3.3000
495047,1.7366,3.2992
495048,1.7310,3.2855
495049,1.7278,3.2710
495050,1.7229,3.2452
495051,1.7270,3.2363
495052,1.7318,3.2105
495053,1.7294,3.1888
495054,1.7253,3.1614
495055,1.7245,3.1372
495056,1.7270,3.1082
495057,1.7262,3.0873
495058,1.7221,3.0623
495059,1.7197,3.0357
495060,1.7205,3.0188
495061,1.7205,2.9930
495062,1.7189,2.9801
495063,1.7173,2.9543
495064,1.7157,2.9398
495065,1.7181,2.9188
495066,1.7149,2.9035
495067,1.7149,2.8858
495068,1.7100,2.8721
495069,1.7092,2.8568
495070,1.7108,2.8447
495071,1.7108,2.8229
495072,1.7100,2.8157
495073,1.7052,2.8060
495074,1.7060,2.7931
495075,1.7076,2.7891
495076,1.7060,2.7738
495077,1.7044,2.7641
495078,1.7100,2.7568
495079,1.7052,2.7480
495080,1.7044,2.7407
495081,1.7044,2.7278
495082,1.7012,2.7206
495083,1.7052,2.7190
495084,1.7020,2.7085
495085,1.6979,2.6988
495086,1.7004,2.6972
495087,1.6979,2.6763
495088,1.6988,2.6819
495089,1.6923,2.6747
495090,1.7004,2.6682
495091,1.7004,2.6634
495092,1.7004,2.6650
495093,1.6979,2.6650
495094,1.6931,2.6505
495095,1.6988,2.6432
495096,1.6996,2.6384
495097,1.6923,2.6352
495098,1.7004,2.6279
495099,1.7012,2.6247
495100,1.6947,2.6190
495101,1.6988,2.6182
495102,1.6939,2.6166
495103,1.6971,2.6158
495104,1.6971,2.6045
495105,1.6979,2.6070
495106,1.6963,2.5965
495107,1.6915,2.5973
495108,1.6939,2.5973
495109,1.6931,2.5933
495110,1.6979,2.5957
495111,1.6963,2.5941
495112,1.6915,2.5908
495113,1.6947,2.5868
495114,1.6963,2.5836
495115,1.6931,2.5763
495116,1.6939,2.5788
495117,1.6963,2.5796
495118,1.7012,2.5699
495119,1.6979,2.5763
495120,1.6947,2.5699
495121,1.6963,2.5707
495122,1.6947,2.5683
495123,1.6971,2.5659
495124,1.6939,2.5610
495125,1.6947,2.5659
495126,1.6939,2.5642
495127,1.7012,2.5618
495128,1.7012,2.5642
495129,1.6996,2.5578
495130,1.7020,2.5618
495131,1.7012,2.5538
495132,1.6979,2.5578
495133,1.6996,2.5618
495134,1.7012,2.5570
495135,1.6996,2.5514
495136,1.7012,2.5522
495137,1.7012,2.5522
495138,1.7012,2.5530
495139,1.7004,2.5530
495140,1.6996,2.5522
495141,1.7004,2.5505
495142,1.7060,2.5530
495143,1.7020,2.5481
495144,1.7076,2.5497
495145,1.7036,2.5522
495146,1.7060,2.5409
495147,1.7052,2.5505
495148,1.7100,2.5425
495149,1.7028,2.5514
495150,1.7028,2.5457
495151,1.7060,2.5489
495152,1.7076,2.5457
495153,1.7100,2.5457
495154,1.7125,2.5457
495155,1.7068,2.5546
495156,1.7141,2.5473
495157,1.7125,2.5441
495158,1.7125,2.5514
495159,1.7149,2.5489
495160,1.7133,2.5481
495161,1.7125,2.5489
495162,1.7149,2.5473
495163,1.7141,2.5489
495164,1.7157,2.5481
495165,1.7149,2.5473
495166,1.7149,2.5514
495167,1.7149,2.5417
495168,1.7189,2.5489
495169,1.7189,2.5473
495170,1.7173,2.5449
495171,1.7181,2.5554
495172,1.7229,2.5481
495173,1.7189,2.5522
495174,1.7197,2.5530
495175,1.7237,2.5514
495176,1.7189,2.5505
495177,1.7149,2.5481
495178,1.7221,2.5522
495179,1.7173,2.5489
495180,1.7221,2.5457
495181,1.7165,2.5497
495182,1.7229,2.5457
495183,1.7221,2.5481
495184,1.7189,2.5514
495185,1.7205,2.5546
495186,1.7270,2.5481
495187,1.7237,2.5489
495188,1.7262,2.5522
495189,1.7229,2.5497
495190,1.7278,2.5489
495191,1.7237,2.5522
495192,1.7294,2.5522
495193,1.7205,2.5514
495194,1.7262,2.5489
495195,1.7262,2.5554
495196,1.7286,2.5522
495197,1.7294,2.5562
495198,1.7245,2.5554
495199,1.7229,2.5554
495200,1.7286,2.5570
495201,1.7270,2.5538
495202,1.7245,2.5546
495203,1.7253,2.5554
495204,1.7262,2.5546
495205,1.7270,2.5602
495206,1.7302,2.5538
495207,1.7270,2.5489
495208,1.7237,2.5610
495209,1.7253,2.5538
495210,1.7310,2.5546
495211,1.7318,2.5610
495212,1.7334,2.5570
495213,1.7310,2.5546
495214,1.7382,2.5522
495215,1.7286,2.5554
495216,1.7318,2.5570
495217,1.7278,2.5578
495218,1.7318,2.5546
495219,1.7286,2.5570
495220,1.7286,2.5562
495221,1.7334,2.5554
495222,1.7286,2.5570
495223,1.7245,2.5546
495224,1.7302,2.5594
495225,1.7326,2.5538
495226,1.7302,2.5546
495227,1.7302,2.5546
495228,1.7294,2.5642
495229,1.7286,2.5554
495230,1.7358,2.5538
495231,1.7310,2.5570
495232,1.7358,2.5562
495233,1.7358,2.5578
495234,1.7326,2.5578
495235,1.7310,2.5610
495236,1.7294,2.5546
495237,1.7286,2.5602
495238,1.7262,2.5586
495239,1.7262,2.5570
495240,1.7366,2.5570
495241,1.7318,2.5554
495242,1.7334,2.5651
495243,1.7350,2.5570
495244,1.7358,2.5610
495245,1.7278,2.5626
495246,1.7294,2.5554
495247,1.7270,2.5570
495248,1.7358,2.5642
495249,1.7334,2.5578
495250,1.7334,2.5610
495251,1.7350,2.5489
495252,1.7334,2.5570
495253,1.7278,2.5570
495254,1.7366,2.5618
495255,1.7286,2.5562
495256,1.7318,2.5570
495257,1.7286,2.5562
495258,1.7262,2.5554
495259,1.7399,2.5562
495260,1.7439,2.5594
495261,1.7334,2.5610
495262,1.7350,2.5546
495263,1.7100,2.5586
495264,1.7294,2.5554
495265,1.7334,2.5602
495266,1.7431,2.5586
495267,1.7374,2.5634
495268,1.7229,2.5610
495269,1.7358,2.5530
495270,1.7270,2.5586
495271,1.7318,2.5570
495272,1.7294,2.5610
495273,1.7366,2.5530
495274,1.7350,2.5586
495275,1.7407,2.5626
495276,1.7294,2.5618
495277,1.7358,2.5602
495278,1.7350,2.5610
495279,1.7374,2.5570
495280,1.7350,2.5610
495281,1.7366,2.5578
495282,1.7270,2.5602
495283,1.7278,2.5570
495284,1.7366,2.5570
495285,1.7229,2.5618
495286,1.7262,2.5602
495287,1.7262,2.5618
495288,1.7382,2.5618
495289,1.7350,2.5659
495290,1.7374,2.5618
495291,1.7382,2.5586
495292,1.7350,2.5546
495293,1.7382,2.5610
495294,1.7334,2.5578
495295,1.7334,2.5602
495296,1.7302,2.5586
495297,1.7334,2.5586
495298,1.7294,2.5602
495299,1.7382,2.5578
495300,1.7431,2.5610
495301,1.7342,2.5586
495302,1.7358,2.5610
495303,1.7302,2.5651
495304,1.7318,2.5642
495305,1.7415,2.5610
495306,1.7366,2.5634
495307,1.7326,2.5586
495308,1.7108,2.5642
495309,1.7358,2.5651
495310,1.7334,2.5659
495311,1.7366,2.5634
495312,1.7390,2.5578
495313,1.7358,2.5610
495314,1.7334,2.5651
495315,1.7399,2.5610
495316,1.7390,2.5618
495317,1.7374,2.5642
495318,1.7318,2.5634
495319,1.7358,2.5610
495320,1.7278,2.5578
495321,1.7366,2.5618
495322,1.7366,2.5586
495323,1.7294,2.5610
495324,1.7366,2.5610
495325,1.7374,2.5578
495326,1.7310,2.5626
495327,1.7302,2.5602
495328,1.7358,2.5618
495329,1.7205,2.5642
495330,1.7366,2.5618
495331,1.7270,2.5610
495332,1.7302,2.5618
495333,1.7326,2.5618
495334,1.7294,2.5618
495335,1.7390,2.5602
495336,1.7334,2.5634
495337,1.7318,2.5659
495338,1.7350,2.5634
495339,1.7326,2.5618
495340,1.7350,2.5634
495341,1.7350,2.5626
495342,1.7229,2.5651
495343,1.7407,2.5651
495344,1.7334,2.5634
495345,1.7334,2.5634
495346,1.7350,2.5651
495347,1.7415,2.5642
495348,1.7278,2.5667
495349,1.7334,2.5642
495350,1.7358,2.5634
495351,1.7326,2.5651
495352,1.7310,2.5642
495353,1.7326,2.5634
495354,1.7334,2.5634
495355,1.7318,2.5659
495356,1.7350,2.5651
495357,1.7302,2.5602
495358,1.7366,2.5602
495359,1.7358,2.5634
495360,1.7358,2.5320
495361,1.7326,2.5651
495362,1.7302,2.5586
495363,1.7334,2.5642
495364,1.7342,2.5522
495365,1.7358,2.5651
495366,1.7382,2.5417
495367,1.7407,2.5634
495368,1.7350,2.5602
495369,1.7382,2.5651
495370,1.7302,2.5457
495371,1.7334,2.5659
495372,1.7302,2.5651
495373,1.7286,2.5651
495374,1.7334,2.5642
495375,1.7318,2.5659
495376,1.7278,2.5659
495377,1.7326,2.5634
495378,1.7302,2.5634
495379,1.7358,2.5602
495380,1.7286,2.5659
495381,1.7286,2.5634
495382,1.7334,2.5642
495383,1.7302,2.5626
495384,1.7358,2.5796
495385,1.7278,2.5634
495386,1.7270,2.5618
495387,1.7334,2.5634
495388,1.7366,2.5642
495389,1.7415,2.5659
495390,1.7366,2.5634
495391,1.7294,2.5659
495392,1.7350,2.5659
495393,1.7358,2.5610
495394,1.7399,2.5610
495395,1.7294,2.5634
495396,1.7205,2.5554
495397,1.7318,2.5602
495398,1.7237,2.5659
495399,1.7302,2.5642
495400,1.7334,2.5618
495401,1.7294,2.5651
495402,1.7302,2.5586
495403,1.7278,2.5707
495404,1.7253,2.5779
495405,1.7310,2.5651
495406,1.7302,2.5651
495407,1.7294,2.5618
495408,1.7326,2.5417
495409,1.7286,2.5642
495410,1.7270,2.5618
495411,1.7310,2.5642
495412,1.7286,2.5626
495413,1.7310,2.5626
495414,1.7262,2.5401
495415,1.7294,2.5626
495416,1.7318,2.5586
495417,1.7302,2.5610
495418,1.7253,2.5651
495419,1.7278,2.5578
495420,1.7286,2.5634
495421,1.7286,2.5651
495422,1.7286,2.5514
495423,1.7310,2.5280
495424,1.7294,2.5626
495425,1.7302,2.5586
495426,1.7294,2.5933
495427,1.7270,2.5755
495428,1.7278,2.5578
495429,1.7318,2.5626
495430,1.7358,2.5659
495431,1.7302,2.5634
495432,1.7334,2.5602
495433,1.7318,2.5610
495434,1.7326,2.5618
495435,1.7334,2.5602
495436,1.7278,2.5602
495437,1.7270,2.5634
495438,1.7326,2.5634
495439,1.7278,2.5618
495440,1.7302,2.5610
495441,1.7326,2.5312
495442,1.7366,2.5570
495443,1.7334,2.5586
495444,1.7286,2.5360
495445,1.7253,2.5586
495446,1.7262,2.5916
495447,1.7302,2.5618
495448,1.7286,2.5602
495449,1.7318,2.5634
495450,1.7286,2.5594
495451,1.7237,2.5602
495452,1.7278,2.5570
495453,1.7334,2.5578
495454,1.7302,2.5554
495455,1.7253,2.5610
495456,1.7278,2.5489
495457,1.7302,2.5747
495458,1.7270,2.5489
495459,1.7294,2.5916
495460,1.7310,2.5393
495461,1.7253,2.5272
495462,1.7270,2.5634
495463,1.7278,2.5473
495464,1.7278,2.5836
495465,1.7358,2.5570
495466,1.7302,2.5618
495467,1.7270,2.5651
495468,1.7302,2.5634
495469,1.7205,2.5634
495470,1.7270,2.5586
495471,1.7253,2.5578
495472,1.7286,2.5570
495473,1.7262,2.5634
495474,1.7278,2.5586
495475,1.7253,2.5618
495476,1.7253,2.5618
495477,1.7278,2.5578
495478,1.7278,2.5634
495479,1.7318,2.5562
495480,1.7278,2.5634
495481,1.7294,2.5489
495482,1.7286,2.5586
495483,1.7278,2.5651
495484,1.7294,2.5594
495485,1.7294,2.5626
495486,1.7237,2.5618
495487,1.7286,2.5618
495488,1.7286,2.5651
495489,1.7197,2.5594
495490,1.7262,2.5602
495491,1.7294,2.5570
495492,1.7253,2.5618
495493,1.7262,2.5610
495494,1.7318,2.5602
495495,1.7253,2.5610
495496,1.7286,2.5562
495497,1.7278,2.5586
495498,1.7302,2.5610
495499,1.7278,2.5586
495500,1.7237,2.5618
495501,1.7278,2.5723
495502,1.7253,2.5522
495503,1.7262,2.5715
495504,1.7294,2.5651
495505,1.7302,2.5618
495506,1.7262,2.5618
495507,1.7310,2.5618
495508,1.7237,2.5618
495509,1.7294,2.5610
495510,1.7253,2.5610
495511,1.7294,2.5586
495512,1.7302,2.5699
495513,1.7270,2.5618
495514,1.7229,2.5602
495515,1.7245,2.5441
495516,1.7278,2.5602
495517,1.7237,2.5538
495518,1.7294,2.5586
495519,1.7278,2.5610
495520,1.7310,2.5554
495521,1.7302,2.5618
495522,1.7286,2.5586
495523,1.7253,2.5602
495524,1.7245,2.5610
495525,1.7294,2.5618
495526,1.7278,2.5602
495527,1.7302,2.5626
495528,1.7294,2.5602
495529,1.7262,2.5481
495530,1.7270,2.5634
495531,1.7262,2.5602
495532,1.7302,2.5538
495533,1.7278,2.5610
495534,1.7270,2.5554
495535,1.7262,2.5602
495536,1.7278,2.5586
495537,1.7262,2.5618
495538,1.7270,2.5651
495539,1.7270,2.5610
495540,1.7286,2.5602
495541,1.7310,2.5602
495542,1.7253,2.5659
495543,1.7286,2.5610
495544,1.7229,2.5602
495545,1.7253,2.5602
495546,1.7294,2.5618
495547,1.7253,2.5602
495548,1.7318,2.5634
495549,1.7237,2.5610
495550,1.7262,2.5610
495551,1.7286,2.5610
495552,1.7253,2.5586
495553,1.7270,2.5586
495554,1.7253,2.5602
495555,1.7286,2.5586
495556,1.7262,2.5586
495557,1.7253,2.5530
495558,1.7253,2.5602
495559,1.7237,2.5570
495560,1.7253,2.5578
495561,1.7253,2.5578
495562,1.7253,2.5578
495563,1.7229,2.5618
495564,1.7253,2.5570
495565,1.7237,2.5530
495566,1.7229,2.5586
495567,1.7237,2.5618
495568,1.7237,2.5570
495569,1.7245,2.5578
495570,1.7205,2.5554
495571,1.7197,2.5626
495572,1.7229,2.5586
495573,1.7253,2.5586
495574,1.7278,2.5594
495575,1.7262,2.5546
495576,1.7253,2.5602
495577,1.7197,2.5578
495578,1.7237,2.5618
495579,1.7221,2.5586
495580,1.7278,2.5602
495581,1.7253,2.5602
495582,1.7237,2.5610
495583,1.7245,2.5618
495584,1.7221,2.5578
495585,1.7262,2.5610
495586,1.7221,2.5538
495587,1.7229,2.5610
495588,1.7229,2.5586
495589,1.7237,2.5651
495590,1.7286,2.5610
495591,1.7253,2.5586
495592,1.7286,2.5586
495593,1.7229,2.5602
495594,1.7237,2.5586
495595,1.7149,2.5602
495596,1.7278,2.5610
495597,1.7205,2.5578
495598,1.7253,2.5570
495599,1.7253,2.5578
495600,1.7197,2.5578
495601,1.7205,2.5514
495602,1.7278,2.5578
495603,1.7221,2.5586
495604,1.7253,2.5570
495605,1.7253,2.5586
495606,1.7229,2.5578
495607,1.7270,2.5618
495608,1.7262,2.5578
495609,1.7253,2.5578
495610,1.7237,2.5578
495611,1.7253,2.5586
495612,1.7197,2.5505
495613,1.7205,2.5586
495614,1.7205,2.5554
495615,1.7253,2.5602
495616,1.7253,2.5586
495617,1.7237,2.5586
495618,1.7245,2.5586
495619,1.7262,2.5554
495620,1.7237,2.5505
495621,1.7229,2.5651
495622,1.7245,2.5602
495623,1.7205,2.5554
495624,1.7253,2.5586
495625,1.7270,2.5642
495626,1.7197,2.5578
495627,1.7237,2.5562
495628,1.7262,2.5578
495629,1.7205,2.5659
495630,1.7262,2.5570
495631,1.7205,2.5578
495632,1.7229,2.5586
495633,1.7278,2.5586
495634,1.7205,2.5586
495635,1.7278,2.5578
495636,1.7221,2.5538
495637,1.7262,2.5570
495638,1.7262,2.5546
495639,1.7237,2.5546
495640,1.7205,2.5562
495641,1.7237,2.5570
495642,1.7237,2.5554
495643,1.7197,2.5586
495644,1.7278,2.5570
495645,1.7237,2.5554
495646,1.7229,2.5538
495647,1.7237,2.5562
495648,1.7270,2.5570
495649,1.7270,2.5618
495650,1.7229,2.5570
495651,1.7253,2.5554
495652,1.7262,2.5570
495653,1.7278,2.5586
495654,1.7245,2.5530
495655,1.7229,2.5530
495656,1.7229,2.5538
495657,1.7229,2.5586
495658,1.7205,2.5651
495659,1.7205,2.5530
495660,1.7262,2.5554
495661,1.7253,2.5538
495662,1.7205,2.5554
495663,1.7221,2.5659
495664,1.7253,2.5546
495665,1.7270,2.5610
495666,1.7229,2.5522
495667,1.7245,2.5554
495668,1.7237,2.5530
495669,1.7189,2.5570
495670,1.7245,2.5522
495671,1.7237,2.5562
495672,1.7270,2.5530
495673,1.7262,2.5618
495674,1.7205,2.5554
495675,1.7253,2.5634
495676,1.7253,2.5546
495677,1.7253,2.5546
495678,1.7229,2.5522
495679,1.7270,2.5522
495680,1.7221,2.5546
495681,1.7253,2.5530
495682,1.7253,2.5530
495683,1.7262,2.5562
495684,1.7229,2.5570
495685,1.7237,2.5554
495686,1.7270,2.5546
495687,1.7229,2.5538
495688,1.7270,2.5602
495689,1.7270,2.5505
495690,1.7253,2.5538
495691,1.7197,2.5546
495692,1.7237,2.5489
495693,1.7229,2.5530
495694,1.7205,2.5586
495695,1.7221,2.5538
495696,1.7262,2.5562
495697,1.7278,2.5570
495698,1.7278,2.5570
495699,1.7221,2.5554
495700,1.7270,2.5530
495701,1.7229,2.5602
495702,1.7213,2.5546
495703,1.7221,2.5578
495704,1.6971,2.5570
495705,1.7262,2.5602
495706,1.7060,2.5602
495707,1.7205,2.5554
495708,1.7253,2.5570
495709,1.7221,2.5578
495710,1.7253,2.5578
495711,1.7262,2.5602
495712,1.7229,2.5578
495713,1.7253,2.5554
495714,1.7221,2.5578
495715,1.7262,2.5570
495716,1.7253,2.5570
495717,1.7270,2.5602
495718,1.7068,2.5538
495719,1.7253,2.5586
495720,1.7237,2.5570
495721,1.7253,2.5546
495722,1.7262,2.5578
495723,1.7189,2.5538
495724,1.7350,2.5522
495725,1.7237,2.5586
495726,1.7302,2.5594
495727,1.7278,2.5554
495728,1.7334,2.5522
495729,1.7205,2.5578
495730,1.7237,2.5659
495731,1.7262,2.5554
495732,1.7262,2.5610
495733,1.7270,2.5570
495734,1.7205,2.5578
495735,1.7229,2.5610
495736,1.7262,2.5514
495737,1.7262,2.5538
495738,1.7229,2.5554
495739,1.7294,2.5570
495740,1.7237,2.5570
495741,1.7221,2.5578
495742,1.7270,2.5570
495743,1.7189,2.5578
495744,1.7245,2.5578
495745,1.7350,2.5578
495746,1.7366,2.5651
495747,1.7237,2.5586
495748,1.7221,2.5602
495749,1.7229,2.5562
495750,1.7270,2.5546
495751,1.7310,2.5610
495752,1.7205,2.5602
495753,1.7221,2.5554
495754,1.7286,2.5546
495755,1.7237,2.5514
495756,1.7237,2.5578
495757,1.7229,2.5602
495758,1.7229,2.5586
495759,1.7262,2.5610
495760,1.7237,2.5546
495761,1.7205,2.5530
495762,1.7229,2.5618
495763,1.7262,2.5586
495764,1.7157,2.5602
495765,1.7237,2.5610
495766,1.7270,2.5578
495767,1.7245,2.5578
495768,1.7294,2.5586
495769,1.7270,2.5594
495770,1.7253,2.5578
495771,1.7318,2.5602
495772,1.7253,2.5586
495773,1.7237,2.5586
495774,1.7189,2.5586
495775,1.7286,2.5634
495776,1.7253,2.5578
495777,1.7253,2.5659
495778,1.7205,2.5586
495779,1.7245,2.5562
495780,1.7221,2.5618
495781,1.7237,2.5610
495782,1.7253,2.5634
495783,1.7294,2.5610
495784,1.7205,2.5602
495785,1.7237,2.5642
495786,1.7205,2.5634
495787,1.7294,2.5546
495788,1.7294,2.5610
495789,1.7294,2.5610
495790,1.7253,2.5618
495791,1.7157,2.5618
495792,1.7229,2.5634
495793,1.7229,2.5618
495794,1.7390,2.5554
495795,1.7262,2.5618
495796,1.7278,2.5578
495797,1.7237,2.5618
495798,1.7253,2.5618
495799,1.7237,2.5562
495800,1.7205,2.5618
495801,1.7229,2.5626
495802,1.7262,2.5634
495803,1.7262,2.5642
495804,1.7262,2.5610
495805,1.7245,2.5586
495806,1.7237,2.5634
495807,1.7318,2.5618
495808,1.7262,2.5570
495809,1.7237,2.5610
495810,1.7286,2.5570
495811,1.7100,2.5618
495812,1.7350,2.5634
495813,1.7286,2.5610
495814,1.7286,2.5602
495815,1.7262,2.5602
495816,1.7310,2.5618
495817,1.7205,2.5610
495818,1.7205,2.5642
495819,1.7229,2.5626
495820,1.7262,2.5618
495821,1.7286,2.5634
495822,1.7229,2.5626
495823,1.7278,2.5610
495824,1.7229,2.5586
495825,1.7253,2.5642
495826,1.7286,2.5634
495827,1.7302,2.5586
495828,1.7302,2.5642
495829,1.7262,2.5626
495830,1.7205,2.5610
495831,1.7253,2.5634
495832,1.7270,2.5618
495833,1.7253,2.5634
495834,1.7245,2.5651
495835,1.7253,2.5651
495836,1.7270,2.5642
495837,1.7237,2.5634
495838,1.7253,2.5634
495839,1.7350,2.5651
495840,1.7294,2.5634
495841,1.7076,2.5642
495842,1.7270,2.5610
495843,1.7278,2.5634
495844,1.7253,2.5659
495845,1.7237,2.5634
495846,1.7270,2.5618
495847,1.7245,2.5634
495848,1.7253,2.5618
495849,1.7302,2.5651
495850,1.7245,2.5634
495851,1.7270,2.5642
495852,1.7270,2.5659
495853,1.7270,2.5651
495854,1.7278,2.5642
495855,1.7237,2.5610
495856,1.7262,2.5618
495857,1.7278,2.5651
495858,1.7286,2.5659
495859,1.7245,2.5642
495860,1.7270,2.5610
495861,1.7253,2.5651
495862,1.7270,2.5610
495863,1.7253,2.5651
495864,1.7237,2.5634
495865,1.7245,2.5634
495866,1.7270,2.5642
495867,1.7270,2.5618
495868,1.7270,2.5642
495869,1.7278,2.5642
495870,1.7270,2.5634
495871,1.7286,2.5634
495872,1.7229,2.5634
495873,1.7245,2.5634
495874,1.7221,2.5659
495875,1.7221,2.5642
495876,1.7286,2.5642
495877,1.7237,2.5642
495878,1.7286,2.5659
495879,1.7237,2.5651
495880,1.7270,2.5659
495881,1.7262,2.5618
495882,1.7253,2.5651
495883,1.7270,2.5634
495884,1.7278,2.5651
495885,1.7278,2.5618
495886,1.7237,2.5651
495887,1.7294,2.5642
495888,1.7262,2.5651
495889,1.7294,2.5659
495890,1.7318,2.5642
495891,1.7278,2.5659
495892,1.7237,2.5667
495893,1.7253,2.5659
495894,1.7229,2.5659
495895,1.7302,2.5659
495896,1.7270,2.5651
495897,1.7181,2.5667
495898,1.7286,2.5497
495899,1.7262,2.5651
495900,1.7286,2.5659
495901,1.7262,2.5659
495902,1.7278,2.5659
495903,1.7237,2.5618
495904,1.7270,2.5916
495905,1.7253,2.5747
495906,1.7278,2.5659
495907,1.7221,2.5659
495908,1.7278,2.5651
495909,1.7334,2.5409
495910,1.7253,2.5796
495911,1.7270,2.5634
495912,1.7278,2.5634
495913,1.7294,2.5659
495914,1.7253,2.5651
495915,1.7270,2.5659
495916,1.7253,2.5659
495917,1.7278,2.5659
495918,1.7286,2.5651
495919,1.7278,2.5659
495920,1.7286,2.5675
495921,1.7270,2.5659
495922,1.7294,2.5546
495923,1.7294,2.5667
495924,1.7229,2.5812
495925,1.7286,2.5699
495926,1.7237,2.5651
495927,1.7294,2.5651
495928,1.7262,2.5642
495929,1.7157,2.5651
495930,1.7294,2.5514
495931,1.7286,2.5457
495932,1.7262,2.5651
495933,1.7294,2.5683
495934,1.7302,2.5667
495935,1.7286,2.5642
495936,1.7262,2.5642
495937,1.7302,2.5667
495938,1.7278,2.5489
495939,1.7270,2.5659
495940,1.7270,2.5659
495941,1.7278,2.5659
495942,1.7302,2.5667
495943,1.7278,2.5659
495944,1.7270,2.5715
495945,1.7286,2.5441
495946,1.7310,2.5836
495947,1.7286,2.5675
495948,1.7318,2.5651
495949,1.7326,2.5699
495950,1.7270,2.5683
495951,1.7253,2.5634
495952,1.7262,2.5659
495953,1.7278,2.5659
495954,1.7270,2.5675
495955,1.7270,2.5425
495956,1.7286,2.5659
495957,1.7278,2.5659
495958,1.7262,2.5925
495959,1.7270,2.5659
495960,1.7334,2.5892
495961,1.7278,2.5659
495962,1.7237,2.5530
495963,1.7237,2.5659
495964,1.7237,2.5634
495965,1.7270,2.5667
495966,1.7294,2.5505
495967,1.7253,2.5659
495968,1.7262,2.5844
495969,1.7245,2.5659
495970,1.7294,2.5667
495971,1.7294,2.5683
495972,1.7286,2.5683
495973,1.7237,2.5788
495974,1.7302,2.5659
495975,1.7286,2.5449
495976,1.7286,2.5634
495977,1.7262,2.5401
495978,1.7270,2.5659
495979,1.7270,2.5675
495980,1.7302,2.5683
495981,1.7278,2.5610
495982,1.7278,2.5659
495983,1.7286,2.5659
495984,1.7286,2.5659
495985,1.7294,2.5667
495986,1.7278,2.5659
495987,1.7278,2.5683
495988,1.7310,2.5667
495989,1.7262,2.5667
495990,1.7270,2.5691
495991,1.7286,2.5659
495992,1.7318,2.5546
495993,1.7262,2.5659
495994,1.7278,2.5707
495995,1.7278,2.5659
495996,1.7278,2.5691
495997,1.7278,2.5667
495998,1.7302,2.5667
495999,1.7294,2.5691
496000,1.7294,2.5715
496001,1.7237,2.5659
496002,1.7294,2.5667
496003,1.7270,2.5651
496004,1.7278,2.5699
496005,1.7278,2.5731
496006,1.7253,2.5659
496007,1.7302,2.5578
496008,1.7270,2.5667
496009,1.7278,2.5683
496010,1.7253,2.5659
496011,1.7278,2.5747
496012,1.7262,2.5683
496013,1.7302,2.5820
496014,1.7318,2.5683
496015,1.7302,2.5417
496016,1.7253,2.5675
496017,1.7310,2.5667
496018,1.7237,2.5659
496019,1.7253,2.5667
496020,1.7262,2.5675
496021,1.7294,2.5699
496022,1.7294,2.5683
496023,1.7270,2.5667
496024,1.7270,2.5659
496025,1.7270,2.5731
496026,1.7286,2.5683
496027,1.7278,2.5707
496028,1.7245,2.5659
496029,1.7302,2.5683
496030,1.7253,2.5699
496031,1.7278,2.5659
496032,1.7294,2.5723
496033,1.7270,2.5691
496034,1.7278,2.5715
496035,1.7302,2.5634
496036,1.7302,2.5699
496037,1.7270,2.5691
496038,1.7278,2.5731
496039,1.7278,2.5707
496040,1.7229,2.5691
496041,1.7221,2.5675
496042,1.7294,2.5683
496043,1.7237,2.5683
496044,1.7270,2.5707
496045,1.7253,2.5675
496046,1.7270,2.5715
496047,1.7278,2.5699
496048,1.7237,2.5707
496049,1.7278,2.5667
496050,1.7270,2.5699
496051,1.7302,2.5699
496052,1.7278,2.5699
496053,1.7286,2.5699
496054,1.7270,2.5683
496055,1.7278,2.5699
496056,1.7302,2.5667
496057,1.7278,2.5659
496058,1.7245,2.5715
496059,1.7318,2.5836
496060,1.7310,2.5667
496061,1.7270,2.5683
496062,1.7318,2.5779
496063,1.7229,2.5683
496064,1.7286,2.5715
496065,1.7237,2.5699
496066,1.7286,2.5699
496067,1.7302,2.5675
496068,1.7229,2.5707
496069,1.7270,2.5691
496070,1.7286,2.5715
496071,1.7286,2.5731
496072,1.7286,2.5683
496073,1.7286,2.5651
496074,1.7286,2.5691
496075,1.7294,2.5699
496076,1.7294,2.5715
496077,1.7286,2.5707
496078,1.7286,2.5715
496079,1.7302,2.5731
496080,1.7294,2.5667
496081,1.7302,2.5683
496082,1.7294,2.5731
496083,1.7278,2.5699
496084,1.7286,2.5739
496085,1.7270,2.5659
496086,1.7286,2.5715
496087,1.7294,2.5659
496088,1.7278,2.5699
496089,1.7302,2.5683
496090,1.7302,2.5675
496091,1.7278,2.5715
496092,1.7253,2.5715
496093,1.7278,2.5699
496094,1.7294,2.5675
496095,1.7286,2.5699
496096,1.7294,2.5731
496097,1.7262,2.5715
496098,1.7310,2.5659
496099,1.7302,2.5707
496100,1.7318,2.5739
496101,1.7286,2.5715
496102,1.7294,2.5699
496103,1.7310,2.5715
496104,1.7302,2.5723
496105,1.7294,2.5715
496106,1.7278,2.5699
496107,1.7270,2.5715
496108,1.7318,2.5763
496109,1.7278,2.5763
496110,1.7286,2.5715
496111,1.7294,2.5675
496112,1.7302,2.5707
496113,1.7253,2.5763
496114,1.7270,2.5828
496115,1.7318,2.5659
496116,1.7302,2.5699
496117,1.7294,2.5715
496118,1.7286,2.5739
496119,1.7270,2.5739
496120,1.7270,2.5699
496121,1.7278,2.5739
496122,1.7270,2.5747
496123,1.7302,2.5683
496124,1.7278,2.5707
496125,1.7278,2.5796
496126,1.7350,2.5707
496127,1.7334,2.5739
496128,1.7326,2.5699
496129,1.7302,2.5675
496130,1.7270,2.5707
496131,1.7286,2.5707
496132,1.7286,2.5771
496133,1.7294,2.5755
496134,1.7286,2.5739
496135,1.7286,2.5747
496136,1.7270,2.5747
496137,1.7286,2.5667
496138,1.7286,2.5715
496139,1.7318,2.5715
496140,1.7310,2.5755
496141,1.7270,2.5659
496142,1.7294,2.5739
496143,1.7278,2.5707
496144,1.7286,2.5715
496145,1.7318,2.5747
496146,1.7310,2.5788
496147,1.7318,2.5739
496148,1.7310,2.5659
496149,1.7294,2.5771
496150,1.7334,2.5707
496151,1.7278,2.5715
496152,1.7318,2.5747
496153,1.7270,2.5715
496154,1.7318,2.5747
496155,1.7278,2.5747
496156,1.7294,2.5747
496157,1.7278,2.5715
496158,1.7302,2.5739
496159,1.7286,2.5747
496160,1.7326,2.5731
496161,1.7286,2.5747
496162,1.7318,2.5755
496163,1.7278,2.5675
496164,1.7294,2.5707
496165,1.7334,2.5739
496166,1.7286,2.5739
496167,1.7294,2.5747
496168,1.7302,2.5731
496169,1.7286,2.5699
496170,1.7302,2.5739
496171,1.7286,2.5731
496172,1.7302,2.5715
496173,1.7334,2.5707
496174,1.7334,2.5715
496175,1.7286,2.5771
496176,1.7318,2.5747
496177,1.7318,2.5707
496178,1.7278,2.5699
496179,1.7294,2.5763
496180,1.7189,2.5707
496181,1.7294,2.5731
496182,1.7302,2.5707
496183,1.7278,2.5707
496184,1.7326,2.5739
496185,1.7318,2.5771
496186,1.7318,2.5715
496187,1.7302,2.5804
496188,1.7334,2.5739
496189,1.7302,2.5659
496190,1.7286,2.5747
496191,1.7286,2.5739
496192,1.7326,2.5707
496193,1.7334,2.5755
496194,1.7326,2.5707
496195,1.7302,2.5747
496196,1.7310,2.5763
496197,1.7302,2.5683
496198,1.7310,2.5715
496199,1.7334,2.5747
496200,1.7286,2.5715
496201,1.7294,2.5739
496202,1.7286,2.5739
496203,1.7294,2.5779
496204,1.7286,2.5739
496205,1.7334,2.5747
496206,1.7334,2.5747
496207,1.7342,2.5747
496208,1.7302,2.5763
496209,1.7318,2.5747
496210,1.7270,2.5755
496211,1.7294,2.5771
496212,1.7278,2.5779
496213,1.7318,2.5763
496214,1.7286,2.5747
496215,1.7302,2.5747
496216,1.7302,2.5747
496217,1.7286,2.5788
496218,1.7149,2.5747
496219,1.7278,2.5739
496220,1.7149,2.5836
496221,1.7310,2.5788
496222,1.7270,2.5779
496223,1.7286,2.5788
496224,1.7310,2.5747
496225,1.7407,2.5763
496226,1.7302,2.5699
496227,1.7270,2.5739
496228,1.7286,2.5747
496229,1.7278,2.5739
496230,1.7334,2.5739
496231,1.7286,2.5739
496232,1.7278,2.5739
496233,1.7310,2.5796
496234,1.7253,2.5771
496235,1.7286,2.5755
496236,1.7342,2.5771
496237,1.7262,2.5755
496238,1.7302,2.5739
496239,1.7302,2.5771
496240,1.7302,2.5699
496241,1.7302,2.5796
496242,1.7326,2.5779
496243,1.7399,2.5763
496244,1.7334,2.5771
496245,1.7302,2.5747
496246,1.7278,2.5755
496247,1.7270,2.5731
496248,1.7350,2.5739
496249,1.7302,2.5731
496250,1.7334,2.5715
496251,1.7310,2.5739
496252,1.7286,2.5747
496253,1.7302,2.5763
496254,1.7302,2.5779
496255,1.7334,2.5747
496256,1.7294,2.5763
496257,1.7326,2.5804
496258,1.7342,2.5747
496259,1.7310,2.5779
496260,1.7407,2.5788
496261,1.7318,2.5747
496262,1.7326,2.5779
496263,1.7302,2.5779
496264,1.7326,2.5796
496265,1.7350,2.5771
496266,1.7326,2.5771
496267,1.7286,2.5788
496268,1.7262,2.5796
496269,1.7286,2.5771
496270,1.7326,2.5788
496271,1.7350,2.5788
496272,1.7286,2.5779
496273,1.7334,2.5788
496274,1.7326,2.5779
496275,1.7358,2.5820
496276,1.7318,2.5788
496277,1.7334,2.5771
496278,1.7302,2.5763
496279,1.7334,2.5771
496280,1.7334,2.5788
496281,1.7463,2.5771
496282,1.7326,2.5771
496283,1.7350,2.5771
496284,1.7399,2.5788
496285,1.7511,2.5763
496286,1.7326,2.5796
496287,1.7286,2.5779
496288,1.7278,2.5812
496289,1.7350,2.5796
496290,1.7334,2.5796
496291,1.7334,2.5788
496292,1.7286,2.5739
496293,1.7350,2.5820
496294,1.7334,2.5804
496295,1.7310,2.5788
496296,1.7423,2.5779
496297,1.7382,2.5788
496298,1.7173,2.5796
496299,1.7302,2.5788
496300,1.7318,2.5788
496301,1.7366,2.5796
496302,1.7318,2.5788
496303,1.7294,2.5804
496304,1.7310,2.5779
496305,1.7237,2.5812
496306,1.7326,2.5779
496307,1.7407,2.5763
496308,1.7326,2.5804
496309,1.7334,2.5796
496310,1.7326,2.5779
496311,1.7334,2.5788
496312,1.7350,2.5804
496313,1.7334,2.5828
496314,1.7270,2.5788
496315,1.7302,2.5812
496316,1.7407,2.5796
496317,1.7318,2.5788
496318,1.7302,2.5812
496319,1.7479,2.5788
496320,1.7253,2.5812
496321,1.7423,2.5804
496322,1.7366,2.5812
496323,1.7116,2.5820
496324,1.7302,2.5796
496325,1.7326,2.5788
496326,1.7318,2.5804
496327,1.7278,2.5779
496328,1.7294,2.5788
496329,1.7455,2.5796
496330,1.7350,2.5779
496331,1.7358,2.5828
496332,1.7294,2.5836
496333,1.7358,2.5828
496334,1.7334,2.5812
496335,1.7318,2.5788
496336,1.7334,2.5779
496337,1.7366,2.5804
496338,1.7407,2.5796
496339,1.7286,2.5771
496340,1.7326,2.5820
496341,1.7294,2.5788
496342,1.7350,2.5804
496343,1.7310,2.5796
496344,1.7358,2.5763
496345,1.7326,2.5796
496346,1.7326,2.5804
496347,1.7366,2.5788
496348,1.7318,2.5788
496349,1.7334,2.5779
496350,1.7334,2.5876
496351,1.7286,2.5796
496352,1.7334,2.5828
496353,1.7358,2.5788
496354,1.7302,2.5796
496355,1.7278,2.5796
496356,1.7294,2.5812
496357,1.7302,2.5804
496358,1.7334,2.5812
496359,1.7358,2.5820
496360,1.7302,2.5836
496361,1.7350,2.5796
496362,1.7334,2.5812
496363,1.7407,2.5796
496364,1.7278,2.6005
496365,1.7302,2.5788
496366,1.7326,2.5796
496367,1.7415,2.5812
496368,1.7358,2.5788
496369,1.7302,2.5860
496370,1.7334,2.5796
496371,1.7334,2.5812
496372,1.7350,2.5489
496373,1.7302,2.5779
496374,1.7326,2.5788
496375,1.7318,2.5788
496376,1.7334,2.5739
496377,1.7358,2.5820
496378,1.7334,2.5804
496379,1.7302,2.5812
496380,1.7326,2.5796
496381,1.7310,2.5804
496382,1.7302,2.5836
496383,1.7334,2.5812
496384,1.7286,2.5820
496385,1.7326,2.5820
496386,1.7358,2.5812
496387,1.7318,2.5804
496388,1.7302,2.5771
496389,1.7310,2.5844
496390,1.7318,2.5779
496391,1.7302,2.5812
496392,1.7366,2.5844
496393,1.7302,2.5828
496394,1.7366,2.5828
496395,1.7342,2.5804
496396,1.7286,2.5844
496397,1.7334,2.5836
496398,1.7326,2.5723
496399,1.7270,2.5804
496400,1.7366,2.5796
496401,1.7358,2.5788
496402,1.7358,2.5796
496403,1.7334,2.5804
496404,1.7382,2.5707
496405,1.7350,2.5828
496406,1.7310,2.5634
496407,1.7302,2.5844
496408,1.7366,2.5804
496409,1.7350,2.5828
496410,1.7334,2.5884
496411,1.7302,2.5796
496412,1.7350,2.5651
496413,1.7326,2.5804
496414,1.7334,2.5844
496415,1.7310,2.5828
496416,1.7334,2.5796
496417,1.7399,2.5812
496418,1.7334,2.5828
496419,1.7366,2.5836
496420,1.7407,2.5836
496421,1.7294,2.5836
496422,1.7358,2.5828
496423,1.7326,2.5715
496424,1.7390,2.5812
496425,1.7366,2.5820
496426,1.7302,2.5828
496427,1.7374,2.5836
496428,1.7366,2.5836
496429,1.7326,2.5804
496430,1.7326,2.5651
496431,1.7358,2.5796
496432,1.7310,2.5836
496433,1.7399,2.5844
496434,1.7334,2.5788
496435,1.7334,2.5804
496436,1.7302,2.5820
496437,1.7334,2.5828
496438,1.7366,2.5828
496439,1.7334,2.5941
496440,1.7334,2.5844
496441,1.7358,2.5812
496442,1.7302,2.5828
496443,1.7366,2.5812
496444,1.7374,2.5828
496445,1.7366,2.5876
496446,1.7318,2.5844
496447,1.7302,2.5812
496448,1.7318,2.5868
496449,1.7366,2.5812
496450,1.7374,2.5828
496451,1.7358,2.5586
496452,1.7334,2.5836
496453,1.7407,2.5884
496454,1.7302,2.5844
496455,1.7294,2.5828
496456,1.7374,2.5771
496457,1.7350,2.5908
496458,1.7334,2.5997
496459,1.7286,2.5868
496460,1.7358,2.5916
496461,1.7286,2.5804
496462,1.7342,2.5916
496463,1.7302,2.5876
496464,1.7318,2.5675
496465,1.7334,2.5844
496466,1.7318,2.5892
496467,1.7310,2.5836
496468,1.7366,2.5876
496469,1.7358,2.6102
496470,1.7358,2.5739
496471,1.7318,2.5796
496472,1.7326,2.5852
496473,1.7310,2.5844
496474,1.7318,2.5667
496475,1.7407,2.5659
496476,1.7358,2.5844
496477,1.7366,2.5836
496478,1.7318,2.5828
496479,1.7294,2.5908
496480,1.7358,2.5836
496481,1.7302,2.5884
496482,1.7366,2.5868
496483,1.7382,2.5860
496484,1.7334,2.5844
496485,1.7326,2.5876
496486,1.7318,2.5997
496487,1.7302,2.5860
496488,1.7358,2.5900
496489,1.7318,2.5844
496490,1.7334,2.5844
496491,1.7334,2.5828
496492,1.7334,2.5820
496493,1.7334,2.5828
496494,1.7294,2.5779
496495,1.7318,2.5755
496496,1.7294,2.5828
496497,1.7334,2.5908
496498,1.7382,2.5868
496499,1.7374,2.5796
496500,1.7366,2.5876
496501,1.7358,2.5892
496502,1.7334,2.5828
496503,1.7334,2.5884
496504,1.7294,2.5820
496505,1.7407,2.5949
496506,1.7366,2.5900
496507,1.7342,2.5876
496508,1.7366,2.5868
496509,1.7326,2.5868
496510,1.7334,2.5828
496511,1.7342,2.5997
496512,1.7318,2.5836
496513,1.7326,2.5828
496514,1.7350,2.5868
496515,1.7366,2.5788
496516,1.7366,2.5860
496517,1.7358,2.5868
496518,1.7358,2.5884
496519,1.7390,2.5876
496520,1.7318,2.5868
496521,1.7334,2.6021
496522,1.7358,2.5828
496523,1.7366,2.5916
496524,1.7310,2.5812
496525,1.7374,2.5868
496526,1.7366,2.5908
496527,1.7407,2.5836
496528,1.7350,2.5876
496529,1.7390,2.5820
496530,1.7350,2.5868
496531,1.7310,2.5844
496532,1.7334,2.5860
496533,1.7382,2.5779
496534,1.7350,2.5828
496535,1.7358,2.5868
496536,1.7326,2.5844
496537,1.7390,2.5820
496538,1.7374,2.5868
496539,1.7358,2.5828
496540,1.7334,2.5860
496541,1.7350,2.5860
496542,1.7350,2.5860
496543,1.7326,2.5868
496544,1.7366,2.5836
496545,1.7382,2.5876
496546,1.7399,2.5828
496547,1.7366,2.5916
496548,1.7334,2.5876
496549,1.7350,2.5892
496550,1.7302,2.5876
496551,1.7326,2.5836
496552,1.7334,2.5876
496553,1.7399,2.5876
496554,1.7407,2.5779
496555,1.7318,2.5876
496556,1.7366,2.5900
496557,1.7382,2.5844
496558,1.7342,2.5868
496559,1.7334,2.5844
496560,1.7366,2.5884
496561,1.7366,2.5949
496562,1.7366,2.5876
496563,1.7374,2.5884
496564,1.7366,2.5860
496565,1.7390,2.5884
496566,1.7334,2.5908
496567,1.7334,2.5876
496568,1.7407,2.5908
496569,1.7390,2.5892
496570,1.7366,2.5892
496571,1.7334,2.5900
496572,1.7334,2.5892
496573,1.7366,2.5884
496574,1.7326,2.5892
496575,1.7350,2.5860
496576,1.7415,2.5892
496577,1.7366,2.5908
496578,1.7366,2.5941
496579,1.7358,2.5715
496580,1.7382,2.5876
496581,1.7374,2.5900
496582,1.7326,2.5908
496583,1.7382,2.5844
496584,1.7326,2.5892
496585,1.7350,2.5788
496586,1.7390,2.5900
496587,1.7423,2.5860
496588,1.7334,2.5860
496589,1.7358,2.5892
496590,1.7334,2.5892
496591,1.7382,2.5892
496592,1.7366,2.5933
496593,1.7374,2.5876
496594,1.7407,2.5916
496595,1.7366,2.5916
496596,1.7358,2.5900
496597,1.7366,2.5868
496598,1.7407,2.5876
496599,1.7390,2.5868
496600,1.7358,2.5900
496601,1.7350,2.5892
496602,1.7407,2.5892
496603,1.7382,2.5868
496604,1.7390,2.5900
496605,1.7415,2.5828
496606,1.7374,2.5876
496607,1.7382,2.5916
496608,1.7382,2.5925
496609,1.7399,2.5892
496610,1.7374,2.5844
496611,1.7382,2.5908
496612,1.7399,2.5900
496613,1.7399,2.5892
496614,1.7366,2.5908
496615,1.7382,2.5916
496616,1.7382,2.5892
496617,1.7374,2.5933
496618,1.7382,2.5941
496619,1.7350,2.5900
496620,1.7350,2.5852
496621,1.7358,2.5908
496622,1.7407,2.5925
496623,1.7366,2.5884
496624,1.7407,2.5916
496625,1.7334,2.5892
496626,1.7366,2.5892
496627,1.7366,2.5876
496628,1.7366,2.5925
496629,1.7358,2.5916
496630,1.7382,2.5933
496631,1.7407,2.5916
496632,1.7399,2.5836
496633,1.7374,2.5860
496634,1.7407,2.5868
496635,1.7358,2.5892
496636,1.7358,2.5892
496637,1.7350,2.5933
496638,1.7390,2.5892
496639,1.7382,2.5892
496640,1.7374,2.5908
496641,1.7407,2.5908
496642,1.7399,2.5868
496643,1.7390,2.5876
496644,1.7407,2.5900
496645,1.7358,2.5925
496646,1.7382,2.5892
496647,1.7350,2.5916
496648,1.7374,2.5908
496649,1.7366,2.5892
496650,1.7399,2.5844
496651,1.7366,2.5933
496652,1.7366,2.5908
496653,1.7382,2.5900
496654,1.7382,2.5916
496655,1.7366,2.5908
496656,1.7358,2.5908
496657,1.7382,2.5908
496658,1.7390,2.5908
496659,1.7399,2.5900
496660,1.7366,2.5892
496661,1.7399,2.5916
496662,1.7358,2.5916
496663,1.7366,2.5900
496664,1.7366,2.5892
496665,1.7382,2.5892
496666,1.7334,2.5916
496667,1.7382,2.5908
496668,1.7382,2.5916
496669,1.7382,2.5908
496670,1.7382,2.5916
496671,1.7407,2.5957
496672,1.7358,2.5916
496673,1.7390,2.5892
496674,1.7334,2.5892
496675,1.7358,2.5916
496676,1.7382,2.5892
496677,1.7390,2.5908
496678,1.7358,2.5900
496679,1.7350,2.5908
496680,1.7399,2.5892
496681,1.7350,2.5916
496682,1.7358,2.5908
496683,1.7366,2.5892
496684,1.7382,2.5916
496685,1.7366,2.5916
496686,1.7358,2.5916
496687,1.7366,2.5916
496688,1.7407,2.5916
496689,1.7382,2.5916
496690,1.7350,2.5908
496691,1.7390,2.5908
496692,1.7358,2.5908
496693,1.7399,2.5908
496694,1.7399,2.5916
496695,1.7390,2.5933
496696,1.7431,2.5916
496697,1.7382,2.5957
496698,1.7382,2.5916
496699,1.7382,2.5916
496700,1.7358,2.5916
496701,1.7374,2.5916
496702,1.7390,2.5916
496703,1.7407,2.5933
496704,1.7407,2.5916
496705,1.7374,2.5916
496706,1.7366,2.5916
496707,1.7358,2.5892
496708,1.7407,2.5916
496709,1.7407,2.5916
496710,1.7415,2.5925
496711,1.7407,2.5925
496712,1.7374,2.5916
496713,1.7382,2.5908
496714,1.7253,2.5941
496715,1.7407,2.5916
496716,1.7366,2.5900
496717,1.7382,2.5925
496718,1.7390,2.5916
496719,1.7382,2.5900
496720,1.7664,2.5916
496721,1.7431,2.5916
496722,1.7407,2.5925
496723,1.7374,2.5916
496724,1.7350,2.5916
496725,1.7439,2.5916
496726,1.7390,2.5876
496727,1.7358,2.5916
496728,1.7366,2.5916
496729,1.7334,2.5916
496730,1.7390,2.5916
496731,1.7358,2.5916
496732,1.7366,2.5900
496733,1.7173,2.5916
496734,1.7399,2.5916
496735,1.7390,2.5916
496736,1.7262,2.5900
496737,1.7350,2.5916
496738,1.7495,2.5908
496739,1.7407,2.5916
496740,1.7382,2.5876
496741,1.7399,2.5908
496742,1.7382,2.5908
496743,1.7407,2.5892
496744,1.7407,2.5916
496745,1.7294,2.5997
496746,1.7399,2.5925
496747,1.7407,2.5916
496748,1.7197,2.5916
496749,1.7382,2.5908
496750,1.7399,2.5916
496751,1.7350,2.5916
496752,1.7463,2.5916
496753,1.7382,2.5965
496754,1.7399,2.5916
496755,1.7390,2.5900
496756,1.7253,2.5916
496757,1.7374,2.5949
496758,1.7382,2.5933
496759,1.7358,2.5908
496760,1.7374,2.5916
496761,1.7407,2.5836
496762,1.7399,2.5916
496763,1.7407,2.5916
496764,1.7407,2.5916
496765,1.7318,2.5916
496766,1.7407,2.5916
496767,1.7382,2.5941
496768,1.7399,2.5916
496769,1.7286,2.5933
496770,1.7382,2.5916
496771,1.7358,2.5965
496772,1.7382,2.5916
496773,1.7366,2.5916
496774,1.7221,2.5933
496775,1.7399,2.5908
496776,1.7407,2.5916
496777,1.7318,2.5933
496778,1.7278,2.5916
496779,1.7399,2.5925
496780,1.7407,2.5916
496781,1.7326,2.5916
496782,1.7463,2.5916
496783,1.7407,2.5949
496784,1.7374,2.5916
496785,1.7399,2.5916
496786,1.7366,2.5916
496787,1.7382,2.5916
496788,1.7326,2.5916
496789,1.7399,2.5925
496790,1.7173,2.5925
496791,1.7455,2.5916
496792,1.7253,2.5916
496793,1.7447,2.5916
496794,1.7423,2.5916
496795,1.7399,2.5916
496796,1.7390,2.5916
496797,1.7407,2.5933
496798,1.7399,2.5916
496799,1.7407,2.5949
496800,1.7415,2.5916
496801,1.7390,2.5925
496802,1.7366,2.5925
496803,1.7407,2.5933
496804,1.7350,2.5916
496805,1.7318,2.5957
496806,1.7407,2.5916
496807,1.7407,2.5916
496808,1.7326,2.5925
496809,1.7358,2.5925
496810,1.7382,2.5957
496811,1.7390,2.5941
496812,1.7382,2.5925
496813,1.7423,2.5949
496814,1.7407,2.5925
496815,1.7487,2.5933
496816,1.7511,2.5916
496817,1.7390,2.5933
496818,1.7390,2.5933
496819,1.7407,2.5957
496820,1.7350,2.5916
496821,1.7294,2.5916
496822,1.7399,2.5925
496823,1.7407,2.5925
496824,1.7350,2.5916
496825,1.7407,2.5925
496826,1.7390,2.5941
496827,1.7447,2.5916
496828,1.7407,2.5957
496829,1.7399,2.5925
496830,1.7407,2.5957
496831,1.7399,2.5941
496832,1.7399,2.5941
496833,1.7382,2.5973
496834,1.7399,2.5949
496835,1.7374,2.5925
496836,1.7334,2.5925
496837,1.7415,2.5925
496838,1.7390,2.5925
496839,1.7382,2.5925
496840,1.7350,2.5925
496841,1.7390,2.5949
496842,1.7399,2.5957
496843,1.7399,2.5957
496844,1.7390,2.5925
496845,1.7390,2.5916
496846,1.7390,2.5957
496847,1.7366,2.5933
496848,1.7407,2.5933
496849,1.7415,2.5916
496850,1.7399,2.5941
496851,1.7399,2.5957
496852,1.7399,2.5925
496853,1.7431,2.5941
496854,1.7431,2.5933
496855,1.7399,2.5941
496856,1.7374,2.5916
496857,1.7415,2.5916
496858,1.7334,2.6142
496859,1.7390,2.5957
496860,1.7407,2.5925
496861,1.7407,2.5933
496862,1.7407,2.5933
496863,1.7407,2.5925
496864,1.7407,2.5933
496865,1.7399,2.5925
496866,1.7382,2.5916
496867,1.7382,2.5941
496868,1.7407,2.5900
496869,1.7447,2.5925
496870,1.7390,2.5941
496871,1.7399,2.5933
496872,1.7407,2.5957
496873,1.7423,2.5941
496874,1.7382,2.5916
496875,1.7407,2.5973
496876,1.7407,2.5933
496877,1.7302,2.5957
496878,1.7399,2.6118
496879,1.7407,2.5788
496880,1.7399,2.6432
496881,1.7407,2.5933
496882,1.7399,2.6053
496883,1.7374,2.5941
496884,1.7382,2.5941
496885,1.7407,2.5941
496886,1.7382,2.5763
496887,1.7407,2.5916
496888,1.7407,2.5957
496889,1.7374,2.5933
496890,1.7399,2.5916
496891,1.7415,2.5933
496892,1.7407,2.5941
496893,1.7407,2.5957
496894,1.7407,2.6102
496895,1.7399,2.5957
496896,1.7415,2.6005
496897,1.7407,2.5957
496898,1.7407,2.5957
496899,1.7407,2.5941
496900,1.7390,2.5941
496901,1.7382,2.5949
496902,1.7382,2.5925
496903,1.7390,2.5957
496904,1.7407,2.5957
496905,1.7415,2.5925
496906,1.7415,2.5997
496907,1.7415,2.5933
496908,1.7407,2.5941
496909,1.7407,2.5957
496910,1.7407,2.5933
496911,1.7382,2.5570
496912,1.7407,2.5957
496913,1.7407,2.5933
496914,1.7382,2.5957
496915,1.7415,2.5973
496916,1.7431,2.5973
496917,1.7407,2.5957
496918,1.7407,2.5949
496919,1.7407,2.5941
496920,1.7423,2.5957
496921,1.7407,2.5941
496922,1.7399,2.5933
496923,1.7399,2.6279
496924,1.7407,2.5965
496925,1.7407,2.5949
496926,1.7407,2.5925
496927,1.7399,2.5925
496928,1.7399,2.5933
496929,1.7407,2.5989
496930,1.7407,2.5916
496931,1.7423,2.5973
496932,1.7407,2.5941
496933,1.7390,2.5941
496934,1.7374,2.5957
496935,1.7399,2.5965
496936,1.7407,2.6134
496937,1.7407,2.5941
496938,1.7407,2.5949
496939,1.7407,2.5957
496940,1.7463,2.6166
496941,1.7415,2.6013
496942,1.7415,2.5973
496943,1.7407,2.5989
496944,1.7399,2.5941
496945,1.7382,2.5941
496946,1.7399,2.5941
496947,1.7399,2.5957
496948,1.7407,2.5828
496949,1.7423,2.5973
496950,1.7423,2.5957
496951,1.7399,2.6279
496952,1.7399,2.5973
496953,1.7407,2.5949
496954,1.7390,2.5957
496955,1.7399,2.5957
496956,1.7407,2.5989
496957,1.7399,2.6013
496958,1.7399,2.5933
496959,1.7407,2.5941
496960,1.7390,2.5973
496961,1.7407,2.5925
496962,1.7366,2.5957
496963,1.7399,2.5941
496964,1.7415,2.6005
496965,1.7399,2.5965
496966,1.7399,2.5788
496967,1.7399,2.5908
496968,1.7423,2.5957
496969,1.7382,2.5916
496970,1.7415,2.5828
496971,1.7407,2.5957
496972,1.7407,2.6158
496973,1.7399,2.5949
496974,1.7399,2.5997
496975,1.7390,2.5965
496976,1.7390,2.5820
496977,1.7407,2.5965
496978,1.7407,2.5957
496979,1.7399,2.6255
496980,1.7407,2.6174
496981,1.7407,2.5933
496982,1.7382,2.5925
496983,1.7415,2.5989
496984,1.7407,2.5925
496985,1.7415,2.5965
496986,1.7407,2.5908
496987,1.7407,2.6005
496988,1.7415,2.5989
496989,1.7399,2.6021
496990,1.7390,2.6086
496991,1.7366,2.5957
496992,1.7399,2.5941
496993,1.7407,2.5916
496994,1.7399,2.5941
496995,1.7407,2.5941
496996,1.7382,2.5828
496997,1.7407,2.5933
496998,1.7374,2.5933
496999,1.7407,2.5876
497000,1.7390,2.5957
497001,1.7390,2.6158
497002,1.7390,2.5933
497003,1.7407,2.5925
497004,1.7407,2.5916
497005,1.7399,2.5997
497006,1.7423,2.5957
497007,1.7390,2.5989
497008,1.7382,2.5941
497009,1.7407,2.5957
497010,1.7382,2.5957
497011,1.7407,2.5957
497012,1.7407,2.5916
497013,1.7374,2.5941
497014,1.7399,2.5941
497015,1.7407,2.6134
497016,1.7407,2.6029
497017,1.7407,2.5973
497018,1.7407,2.5973
497019,1.7407,2.5941
497020,1.7407,2.5989
497021,1.7366,2.6126
497022,1.7399,2.5957
497023,1.7399,2.5997
497024,1.7382,2.5957
497025,1.7407,2.5957
497026,1.7455,2.5957
497027,1.7407,2.5973
497028,1.7407,2.5965
497029,1.7407,2.5941
497030,1.7415,2.5949
497031,1.7399,2.5973
497032,1.7407,2.5957
497033,1.7407,2.5916
497034,1.7431,2.5949
497035,1.7399,2.5957
497036,1.7423,2.5957
497037,1.7407,2.5771
497038,1.7399,2.5973
497039,1.7415,2.5941
497040,1.7415,2.5933
497041,1.7407,2.5997
497042,1.7399,2.5949
497043,1.7407,2.5973
497044,1.7390,2.5989
497045,1.7407,2.6037
497046,1.7382,2.5997
497047,1.7407,2.6134
497048,1.7390,2.5973
497049,1.7415,2.5997
497050,1.7407,2.5973
497051,1.7423,2.6053
497052,1.7407,2.5965
497053,1.7399,2.5973
497054,1.7415,2.5941
497055,1.7407,2.5989
497056,1.7407,2.5957
497057,1.7415,2.5916
497058,1.7382,2.5997
497059,1.7423,2.5973
497060,1.7439,2.6005
497061,1.7407,2.6013
497062,1.7407,2.5973
497063,1.7407,2.5973
497064,1.7431,2.6005
497065,1.7382,2.5957
497066,1.7407,2.5965
497067,1.7407,2.5933
497068,1.7431,2.5965
497069,1.7439,2.6005
497070,1.7407,2.6013
497071,1.7407,2.5997
497072,1.7390,2.6029
497073,1.7407,2.5941
497074,1.7407,2.6005
497075,1.7390,2.5989
497076,1.7415,2.5997
497077,1.7407,2.5973
497078,1.7415,2.6037
497079,1.7407,2.6005
497080,1.7399,2.5973
497081,1.7407,2.6029
497082,1.7407,2.5949
497083,1.7415,2.5973
497084,1.7431,2.5941
497085,1.7390,2.5973
497086,1.7407,2.5997
497087,1.7407,2.5989
497088,1.7399,2.5973
497089,1.7423,2.6013
497090,1.7407,2.5997
497091,1.7407,2.5997
497092,1.7415,2.5997
497093,1.7415,2.6013
497094,1.7407,2.6021
497095,1.7399,2.6005
497096,1.7431,2.6005
497097,1.7407,2.6021
497098,1.7431,2.5997
497099,1.7407,2.5997
497100,1.7415,2.6021
497101,1.7431,2.5973
497102,1.7399,2.5973
497103,1.7407,2.5989
497104,1.7399,2.5949
497105,1.7407,2.5949
497106,1.7423,2.6005
497107,1.7407,2.6029
497108,1.7407,2.6045
497109,1.7423,2.5989
497110,1.7415,2.6037
497111,1.7415,2.5989
497112,1.7415,2.5973
497113,1.7415,2.6029
497114,1.7407,2.6045
497115,1.7407,2.5997
497116,1.7423,2.6005
497117,1.7399,2.6037
497118,1.7407,2.6021
497119,1.7415,2.5997
497120,1.7415,2.5965
497121,1.7407,2.5997
497122,1.7407,2.6021
497123,1.7399,2.6005
497124,1.7415,2.6005
497125,1.7415,2.5925
497126,1.7407,2.5965
497127,1.7439,2.5965
497128,1.7439,2.5997
497129,1.7407,2.6005
497130,1.7407,2.6013
497131,1.7407,2.5997
497132,1.7390,2.5997
497133,1.7423,2.6005
497134,1.7439,2.6029
497135,1.7423,2.6005
497136,1.7431,2.6005
497137,1.7407,2.6029
497138,1.7423,2.6013
497139,1.7407,2.5997
497140,1.7423,2.6021
497141,1.7407,2.6070
497142,1.7407,2.5989
497143,1.7407,2.6029
497144,1.7447,2.5933
497145,1.7415,2.6013
497146,1.7407,2.5989
497147,1.7415,2.6062
497148,1.7407,2.5965
497149,1.7407,2.5997
497150,1.7415,2.5973
497151,1.7407,2.5989
497152,1.7415,2.5965
497153,1.7407,2.5989
497154,1.7407,2.5997
497155,1.7415,2.6005
497156,1.7407,2.5965
497157,1.7415,2.5965
497158,1.7407,2.5973
497159,1.7407,2.6005
497160,1.7415,2.5997
497161,1.7407,2.6005
497162,1.7399,2.6021
497163,1.7407,2.5989
497164,1.7415,2.5997
497165,1.7407,2.6037
497166,1.7431,2.6013
497167,1.7415,2.6005
497168,1.7447,2.5973
497169,1.7415,2.5916
497170,1.7399,2.5997
497171,1.7407,2.5997
497172,1.7415,2.6005
497173,1.7407,2.6005
497174,1.7399,2.5989
497175,1.7407,2.6005
497176,1.7431,2.6005
497177,1.7407,2.5973
497178,1.7407,2.6021
497179,1.7415,2.5997
497180,1.7407,2.5925
497181,1.7407,2.5965
497182,1.7407,2.5973
497183,1.7399,2.6021
497184,1.7415,2.5973
497185,1.7407,2.6005
497186,1.7407,2.6005
497187,1.7447,2.6013
497188,1.7431,2.6037
497189,1.7423,2.6021
497190,1.7407,2.6053
497191,1.7423,2.5989
497192,1.7407,2.5941
497193,1.7407,2.5997
497194,1.7447,2.5973
497195,1.7407,2.5997
497196,1.7431,2.6005
497197,1.7447,2.5997
497198,1.7390,2.5997
497199,1.7407,2.5973
497200,1.7407,2.6005
497201,1.7407,2.5973
497202,1.7431,2.5973
497203,1.7407,2.5989
497204,1.7447,2.6021
497205,1.7407,2.6005
497206,1.7455,2.6013
497207,1.7423,2.6005
497208,1.7407,2.5997
497209,1.7407,2.6005
497210,1.7407,2.6021
497211,1.7423,2.6013
497212,1.7407,2.6021
497213,1.7431,2.5973
497214,1.7390,2.5941
497215,1.7423,2.6021
497216,1.7382,2.5997
497217,1.7495,2.6005
497218,1.7407,2.6013
497219,1.7431,2.6021
497220,1.7407,2.6029
497221,1.7431,2.6013
497222,1.7407,2.6021
497223,1.7407,2.5997
497224,1.7407,2.6029
497225,1.7407,2.6021
497226,1.7439,2.5997
497227,1.7423,2.6005
497228,1.7415,2.6005
497229,1.7439,2.6037
497230,1.7407,2.6005
497231,1.7423,2.6037
497232,1.7415,2.6021
497233,1.7358,2.6021
497234,1.7407,2.5989
497235,1.7431,2.6013
497236,1.7415,2.6021
497237,1.7382,2.6005
497238,1.7415,2.6021
497239,1.7407,2.6037
497240,1.7407,2.6029
497241,1.7407,2.6037
497242,1.7399,2.6021
497243,1.7439,2.6021
497244,1.7407,2.6005
497245,1.7423,2.6037
497246,1.7527,2.6070
497247,1.7479,2.6037
497248,1.7447,2.6013
497249,1.7415,2.6021
497250,1.7447,2.5973
497251,1.7439,2.6029
497252,1.7415,2.5965
497253,1.7487,2.6005
497254,1.7415,2.6037
497255,1.7463,2.6045
497256,1.7407,2.6005
497257,1.7431,2.6005
497258,1.7455,2.6045
497259,1.7431,2.6005
497260,1.7399,2.5989
497261,1.7407,2.5997
497262,1.7423,2.6029
497263,1.7407,2.6037
497264,1.7423,2.6037
497265,1.7447,2.6070
497266,1.7431,2.6021
497267,1.7407,2.6062
497268,1.7407,2.6037
497269,1.7431,2.6029
497270,1.7415,2.6086
497271,1.7455,2.6062
497272,1.7407,2.6021
497273,1.7382,2.5965
497274,1.7463,2.6029
497275,1.7455,2.6053
497276,1.7576,2.6037
497277,1.7423,2.6053
497278,1.7423,2.6037
497279,1.7439,2.6053
497280,1.7552,2.6045
497281,1.7407,2.6045
497282,1.7423,2.6045
497283,1.7326,2.6086
497284,1.7511,2.6021
497285,1.7431,2.6070
497286,1.7415,2.6029
497287,1.7439,2.6094
497288,1.7390,2.6037
497289,1.7455,2.6037
497290,1.7415,2.6029
497291,1.7455,2.6037
497292,1.7463,2.6053
497293,1.7447,2.6062
497294,1.7415,2.6062
497295,1.7382,2.6045
497296,1.7407,2.6045
497297,1.7447,2.6037
497298,1.7463,2.6102
497299,1.7536,2.6037
497300,1.7423,2.6053
497301,1.7415,2.6102
497302,1.7624,2.6094
497303,1.7431,2.6062
497304,1.7519,2.6045
497305,1.7463,2.6053
497306,1.7447,2.6070
497307,1.7423,2.6086
497308,1.7407,2.6070
497309,1.7455,2.6070
497310,1.7487,2.6086
497311,1.7431,2.6070
497312,1.7439,2.6070
497313,1.7495,2.6053
497314,1.7407,2.6086
497315,1.7431,2.6045
497316,1.7447,2.6086
497317,1.7576,2.6045
497318,1.7527,2.6062
497319,1.7487,2.6070
497320,1.7487,2.6062
497321,1.7463,2.6102
497322,1.7415,2.6086
497323,1.7447,2.6078
497324,1.7487,2.6053
497325,1.7463,2.6094
497326,1.7519,2.6126
497327,1.7431,2.6094
497328,1.7479,2.6102
497329,1.7487,2.6118
497330,1.7479,2.6102
497331,1.7495,2.6062
497332,1.7511,2.6110
497333,1.7479,2.6086
497334,1.7487,2.6126
497335,1.7407,2.6102
497336,1.7455,2.6102
497337,1.7463,2.6126
497338,1.7519,2.6086
497339,1.7519,2.6126
497340,1.7519,2.6086
497341,1.7463,2.6150
497342,1.7519,2.6102
497343,1.7463,2.6102
497344,1.7511,2.6126
497345,1.7536,2.6126
497346,1.7544,2.6102
497347,1.7487,2.6102
497348,1.7415,2.6118
497349,1.7544,2.6166
497350,1.7495,2.6102
497351,1.7519,2.6134
497352,1.7447,2.6102
497353,1.7447,2.6094
497354,1.7487,2.6102
497355,1.7560,2.6118
497356,1.7511,2.6118
497357,1.7536,2.6158
497358,1.7471,2.6126
497359,1.7503,2.6142
497360,1.7511,2.6215
497361,1.7495,2.6158
497362,1.7536,2.6158
497363,1.7519,2.6134
497364,1.7455,2.6134
497365,1.7519,2.6094
497366,1.7544,2.6150
497367,1.7536,2.6134
497368,1.7503,2.6134
497369,1.7511,2.6094
497370,1.7527,2.6094
497371,1.7495,2.6086
497372,1.7536,2.6094
497373,1.7495,2.6126
497374,1.7479,2.6126
497375,1.7640,2.6070
497376,1.7527,2.6102
497377,1.7527,2.6102
497378,1.7495,2.6062
497379,1.7487,2.6126
497380,1.7503,2.6094
497381,1.7479,2.6134
497382,1.7527,2.6126
497383,1.7552,2.6150
497384,1.7511,2.6166
497385,1.7511,2.6102
497386,1.7511,2.6126
497387,1.7536,2.6062
497388,1.7431,2.6086
497389,1.7527,2.6086
497390,1.7503,2.6231
497391,1.7544,2.6126
497392,1.7536,2.6094
497393,1.7519,2.6102
497394,1.7536,2.5997
497395,1.7568,2.6094
497396,1.7519,2.6102
497397,1.7544,2.5900
497398,1.7536,2.6174
497399,1.7519,2.6062
497400,1.7519,2.6223
497401,1.7519,2.6070
497402,1.7536,2.6287
497403,1.7527,2.6070
497404,1.7544,2.6029
497405,1.7519,2.6062
497406,1.7439,2.6255
497407,1.7552,2.6045
497408,1.7536,2.6070
497409,1.7536,2.6086
497410,1.7527,2.5820
497411,1.7519,2.6021
497412,1.7527,2.6086
497413,1.7511,2.6062
497414,1.7527,2.6053
497415,1.7463,2.5989
497416,1.7544,2.6029
497417,1.7519,2.6053
497418,1.7536,2.5868
497419,1.7576,2.5860
497420,1.7576,2.5925
497421,1.7536,2.5683
497422,1.7536,2.5804
497423,1.7519,2.6215
497424,1.7519,2.6062
497425,1.7519,2.6070
497426,1.7527,2.6070
497427,1.7552,2.6029
497428,1.7536,2.6029
497429,1.7544,2.6005
497430,1.7544,2.6021
497431,1.7552,2.6005
497432,1.7576,2.6190
497433,1.7560,2.6045
497434,1.7527,2.6021
497435,1.7560,2.5892
497436,1.7544,2.6005
497437,1.7552,2.6037
497438,1.7527,2.6174
497439,1.7544,2.6037
497440,1.7536,2.6263
497441,1.7527,2.5981
497442,1.7503,2.6166
497443,1.7544,2.6021
497444,1.7552,2.5916
497445,1.7536,2.6005
497446,1.7544,2.6070
497447,1.7536,2.6005
497448,1.7560,2.5965
497449,1.7544,2.6021
497450,1.7544,2.5973
497451,1.7536,2.5908
497452,1.7592,2.6021
497453,1.7576,2.6037
497454,1.7455,2.6094
497455,1.7552,2.5868
497456,1.7463,2.6045
497457,1.7568,2.5997
497458,1.7560,2.5659
