time_ms,ch1_v,ch2_v
4,4.57,3.96
75,4.57,3.96
76,4.57,3.96
77,4.57,3.96
78,4.56,3.96
79,4.56,3.96
80,4.56,3.96
81,4.56,3.96
82,4.55,3.95
83,4.55,3.95
84,4.55,3.95
86,4.55,3.95
87,4.54,3.95
88,4.54,3.95
89,4.54,3.95
90,4.54,3.95
91,4.54,3.95
92,4.54,3.95
93,4.53,3.95
94,4.53,3.95
95,4.53,3.95
96,4.53,3.95
98,4.53,3.95
99,4.53,3.94
100,4.52,3.95
101,4.52,3.94
102,4.52,3.94
103,4.52,3.94
104,4.52,3.94
105,4.52,3.94
106,4.52,3.94
107,4.52,3.94
108,4.52,3.94
109,4.52,3.94
110,4.52,3.94
111,4.51,3.94
113,4.51,3.94
114,4.51,3.94
115,4.51,3.94
116,4.51,3.94
117,4.51,3.94
118,4.51,3.94
119,4.51,3.94
120,4.51,3.94
121,4.51,3.94
122,4.51,3.94
123,4.51,3.95
124,4.51,3.94
125,4.51,3.94
128,4.51,3.95
129,4.51,3.94
130,4.51,3.95
131,4.51,3.95
132,4.51,3.95
133,4.51,3.95
134,4.51,3.95
135,4.51,3.95
136,4.51,3.95
137,4.51,3.95
138,4.51,3.95
139,4.51,3.95
140,4.51,3.95
142,4.51,3.95
143,4.51,3.95
144,4.51,3.95
145,4.51,3.95
146,4.51,3.95
147,4.51,3.95
148,4.51,3.95
149,4.51,3.95
150,4.51,3.95
151,4.51,3.95
152,4.51,3.95
153,4.51,3.95
154,4.51,3.95
156,4.51,3.95
157,4.51,3.95
158,4.51,3.95
159,4.51,3.95
160,4.51,3.95
161,4.51,3.95
162,4.51,3.95
163,4.51,3.96
164,4.51,3.95
165,4.51,3.96
166,4.51,3.96
167,4.52,3.96
168,4.51,3.96
171,4.51,3.96
172,4.52,3.96
173,4.51,3.96
174,4.51,3.96
175,4.52,3.96
176,4.52,3.96
177,4.52,3.96
178,4.51,3.96
179,4.51,3.96
180,4.51,3.96
181,4.51,3.96
182,4.52,3.96
183,4.52,3.96
185,4.51,3.96
186,4.51,3.96
187,4.51,3.96
188,4.51,3.96
189,4.51,3.96
190,4.51,3.96
191,4.51,3.96
192,4.51,3.96
193,4.51,3.96
194,4.51,3.96
195,4.51,3.96
196,4.51,3.96
197,4.51,3.96
199,4.51,3.96
200,4.51,3.96
201,4.51,3.96
202,4.51,3.96
203,4.51,3.96
204,4.51,3.96
205,4.51,3.96
206,4.51,3.96
207,4.51,3.96
208,4.51,3.96
209,4.51,3.96
210,4.51,3.96
211,4.51,3.96
214,4.51,3.96
215,4.51,3.96
216,4.51,3.96
217,4.51,3.96
218,4.51,3.96
219,4.51,3.96
220,4.51,3.96
221,4.51,3.96
222,4.51,3.97
223,4.51,3.96
224,4.51,3.96
225,4.51,3.96
226,4.51,3.96
228,4.51,3.96
229,4.51,3.96
230,4.51,3.97
231,4.51,3.96
232,4.51,3.96
233,4.51,3.97
234,4.51,3.96
235,4.51,3.97
236,4.51,3.96
237,4.51,3.96
238,4.51,3.96
239,4.51,3.96
240,4.51,3.96
242,4.51,3.96
243,4.51,3.96
244,4.51,3.96
245,4.51,3.96
246,4.51,3.97
247,4.51,3.96
248,4.51,3.97
249,4.51,3.97
250,4.51,3.97
251,4.51,3.97
252,4.51,3.97
253,4.51,3.97
254,4.51,3.97
257,4.51,3.97
258,4.51,3.97
259,4.51,3.97
260,4.51,3.97
261,4.51,3.96
262,4.51,3.97
263,4.51,3.97
264,4.51,3.97
265,4.51,3.97
266,4.51,3.97
267,4.51,3.97
268,4.51,3.97
269,4.51,3.97
271,4.51,3.97
272,4.51,3.97
273,4.51,3.97
274,4.51,3.97
275,4.51,3.97
276,4.51,3.97
277,4.51,3.97
278,4.51,3.97
279,4.51,3.97
280,4.51,3.97
281,4.51,3.97
282,4.51,3.97
283,4.51,3.97
285,4.51,3.97
286,4.51,3.97
287,4.51,3.97
288,4.51,3.97
289,4.51,3.97
290,4.51,3.97
291,4.51,3.97
292,4.51,3.97
293,4.51,3.97
294,4.51,3.97
295,4.51,3.97
296,4.51,3.97
297,4.51,3.98
300,4.51,3.98
301,4.51,3.97
302,4.51,3.98
303,4.51,3.98
304,4.51,3.98
305,4.51,3.98
306,4.51,3.98
307,4.51,3.98
308,4.51,3.98
309,4.51,3.98
310,4.51,3.98
311,4.51,3.98
313,4.51,3.98
314,4.51,3.98
315,4.51,3.98
316,4.51,3.98
317,4.51,3.98
318,4.51,3.98
319,4.51,3.98
320,4.51,3.98
321,4.51,3.98
322,4.51,3.99
323,4.51,3.99
324,4.51,3.99
325,4.51,3.99
327,4.51,3.99
328,4.51,3.98
329,4.51,3.99
330,4.51,3.99
331,4.51,3.99
332,4.51,3.99
333,4.51,3.99
334,4.51,3.99
335,4.51,3.99
336,4.51,3.99
337,4.51,3.99
338,4.51,3.99
340,4.51,3.99
342,4.51,3.99
343,4.51,3.99
344,4.51,3.99
345,4.51,3.99
346,4.51,3.99
347,4.51,3.99
348,4.51,3.99
349,4.51,3.99
350,4.51,3.99
351,4.51,3.99
352,4.51,3.99
353,4.51,3.99
355,4.51,4.00
356,4.51,4.00
357,4.51,4.00
358,4.51,4.00
359,4.51,4.00
360,4.51,4.00
361,4.51,4.00
362,4.51,4.00
363,4.51,4.00
364,4.51,4.00
365,4.51,4.00
366,4.51,4.00
367,4.50,4.01
368,4.50,4.00
369,4.50,4.01
371,4.50,4.00
372,4.50,4.01
373,4.50,4.01
374,4.50,4.01
375,4.50,4.01
376,4.50,4.01
377,4.50,4.01
378,4.51,4.01
379,4.50,4.01
380,4.50,4.01
381,4.50,4.01
382,4.50,4.02
384,4.50,4.02
385,4.50,4.02
386,4.50,4.02
388,4.50,4.02
389,4.50,4.02
390,4.50,4.02
391,4.50,4.02
392,4.50,4.02
393,4.50,4.03
394,4.50,4.03
395,4.50,4.03
396,4.50,4.03
397,4.50,4.03
398,4.50,4.03
399,4.50,4.03
400,4.50,4.04
401,4.50,4.03
402,4.50,4.03
404,4.50,4.04
405,4.50,4.04
406,4.50,4.04
407,4.50,4.04
408,4.50,4.04
409,4.50,4.04
410,4.50,4.04
411,4.50,4.04
412,4.51,4.04
413,4.51,4.05
414,4.51,4.05
415,4.50,4.05
416,4.51,4.05
417,4.50,4.05
418,4.50,4.05
420,4.50,4.05
421,4.50,4.06
422,4.51,4.06
423,4.51,4.06
424,4.51,4.06
425,4.51,4.06
427,4.51,4.06
428,4.50,4.06
429,4.50,4.06
430,4.50,4.06
431,4.50,4.06
432,4.50,4.06
433,4.51,4.07
434,4.50,4.07
436,4.51,4.07
437,4.51,4.07
438,4.50,4.07
439,4.50,4.07
440,4.51,4.07
441,4.51,4.08
442,4.50,4.08
443,4.51,4.08
444,4.51,4.08
445,4.51,4.08
446,4.51,4.09
447,4.51,4.09
448,4.50,4.09
449,4.51,4.09
451,4.51,4.09
452,4.51,4.10
453,4.51,4.10
454,4.51,4.10
455,4.51,4.10
456,4.51,4.10
457,4.51,4.10
458,4.51,4.11
459,4.51,4.11
460,4.50,4.11
461,4.51,4.11
462,4.50,4.11
463,4.50,4.11
465,4.50,4.11
466,4.50,4.11
467,4.50,4.12
468,4.50,4.12
470,4.50,4.12
471,4.50,4.12
472,4.50,4.12
473,4.50,4.12
474,4.50,4.12
475,4.50,4.12
476,4.50,4.13
477,4.50,4.12
478,4.50,4.12
480,4.50,4.12
481,4.50,4.13
482,4.50,4.13
483,4.50,4.13
484,4.50,4.13
485,4.50,4.13
486,4.50,4.13
487,4.50,4.13
488,4.50,4.13
489,4.50,4.13
490,4.50,4.13
491,4.50,4.13
492,4.50,4.13
493,4.50,4.13
495,4.50,4.13
496,4.50,4.13
497,4.50,4.13
498,4.50,4.13
499,4.50,4.13
500,4.50,4.13
501,4.50,4.13
502,4.50,4.13
503,4.50,4.13
504,4.50,4.13
505,4.50,4.13
506,4.50,4.14
507,4.50,4.14
508,4.50,4.14
510,4.50,4.14
512,4.50,4.14
513,4.50,4.14
514,4.50,4.14
515,4.50,4.14
516,4.50,4.14
517,4.50,4.14
518,4.50,4.14
519,4.50,4.14
520,4.50,4.14
521,4.50,4.14
522,4.50,4.14
523,4.50,4.14
524,4.50,4.14
526,4.50,4.14
527,4.50,4.14
528,4.50,4.14
529,4.50,4.14
530,4.50,4.14
531,4.50,4.14
532,4.50,4.14
533,4.50,4.14
534,4.50,4.14
535,4.50,4.14
536,4.50,4.14
537,4.50,4.14
538,4.50,4.14
539,4.50,4.14
540,4.50,4.14
542,4.50,4.14
543,4.50,4.14
544,4.50,4.14
545,4.50,4.14
546,4.50,4.14
547,4.50,4.14
548,4.50,4.14
549,4.50,4.14
550,4.50,4.14
551,4.50,4.14
552,4.50,4.14
553,4.50,4.14
555,4.50,4.14
556,4.50,4.14
558,4.50,4.14
559,4.50,4.14
560,4.50,4.14
561,4.50,4.13
562,4.50,4.13
563,4.50,4.13
564,4.50,4.13
565,4.50,4.13
566,4.50,4.13
567,4.50,4.13
568,4.50,4.13
569,4.50,4.13
570,4.50,4.13
571,4.50,4.13
573,4.50,4.12
574,4.50,4.12
575,4.50,4.12
576,4.50,4.12
577,4.50,4.12
578,4.50,4.11
579,4.50,4.11
580,4.50,4.11
581,4.50,4.11
582,4.50,4.11
583,4.50,4.11
584,4.50,4.10
585,4.50,4.10
587,4.50,4.10
588,4.50,4.10
589,4.50,4.09
590,4.50,4.09
591,4.50,4.09
592,4.50,4.09
593,4.50,4.09
594,4.50,4.08
595,4.49,4.08
596,4.49,4.08
598,4.49,4.08
599,4.50,4.08
600,4.49,4.07
601,4.50,4.07
603,4.49,4.07
604,4.49,4.07
605,4.49,4.07
606,4.49,4.06
607,4.49,4.06
608,4.49,4.06
609,4.49,4.06
610,4.49,4.05
611,4.49,4.05
612,4.49,4.05
613,4.49,4.05
614,4.49,4.04
615,4.49,4.04
616,4.50,4.04
618,4.49,4.04
619,4.49,4.04
620,4.49,4.03
621,4.49,4.03
622,4.50,4.03
623,4.49,4.03
624,4.50,4.02
625,4.49,4.02
626,4.49,4.02
627,4.49,4.02
628,4.49,4.01
629,4.49,4.01
630,4.49,4.01
631,4.49,4.00
633,4.49,4.00
634,4.49,4.00
635,4.49,4.00
636,4.49,4.00
637,4.49,3.99
638,4.49,3.99
640,4.49,3.99
641,4.49,3.99
642,4.49,3.98
643,4.49,3.98
644,4.49,3.98
645,4.49,3.98
646,4.49,3.97
647,4.49,3.97
648,4.49,3.97
650,4.49,3.97
651,4.49,3.97
652,4.49,3.96
653,4.49,3.96
654,4.49,3.96
655,4.49,3.96
656,4.49,3.95
657,4.49,3.95
658,4.49,3.95
659,4.49,3.95
660,4.49,3.94
661,4.49,3.94
662,4.49,3.94
663,4.49,3.93
665,4.49,3.93
666,4.49,3.93
667,4.49,3.93
668,4.49,3.92
669,4.49,3.92
670,4.49,3.92
671,4.49,3.92
672,4.49,3.92
673,4.49,3.91
674,4.49,3.91
675,4.49,3.91
676,4.49,3.91
677,4.49,3.91
679,4.49,3.91
680,4.49,3.90
681,4.49,3.90
683,4.49,3.90
684,4.49,3.90
685,4.49,3.89
686,4.49,3.89
687,4.49,3.89
688,4.49,3.89
689,4.49,3.88
690,4.49,3.88
691,4.49,3.88
692,4.49,3.88
694,4.49,3.87
695,4.49,3.87
696,4.49,3.87
697,4.49,3.87
698,4.49,3.86
699,4.49,3.86
700,4.49,3.86
701,4.49,3.86
702,4.49,3.86
703,4.49,3.85
704,4.49,3.85
705,4.49,3.85
706,4.49,3.85
708,4.48,3.84
709,4.48,3.84
710,4.49,3.84
711,4.48,3.84
712,4.48,3.84
713,4.48,3.83
714,4.48,3.83
715,4.48,3.83
716,4.48,3.83
717,4.48,3.83
718,4.49,3.82
719,4.48,3.82
721,4.48,3.82
722,4.48,3.82
723,4.48,3.82
724,4.48,3.81
726,4.48,3.81
727,4.48,3.81
728,4.48,3.81
729,4.48,3.81
730,4.48,3.80
731,4.48,3.80
732,4.48,3.80
733,4.48,3.80
734,4.48,3.80
735,4.48,3.79
737,4.48,3.79
738,4.48,3.79
739,4.48,3.79
740,4.48,3.79
741,4.48,3.78
742,4.48,3.78
743,4.48,3.78
744,4.48,3.78
745,4.48,3.78
746,4.48,3.78
747,4.48,3.77
748,4.48,3.77
749,4.48,3.77
750,4.48,3.77
752,4.48,3.77
753,4.48,3.77
754,4.48,3.77
755,4.48,3.76
756,4.48,3.76
757,4.48,3.76
758,4.48,3.76
759,4.48,3.76
760,4.48,3.76
761,4.48,3.75
762,4.48,3.75
763,4.48,3.75
764,4.48,3.75
766,4.48,3.75
768,4.48,3.75
769,4.48,3.75
770,4.48,3.74
771,4.48,3.74
772,4.48,3.74
773,4.48,3.74
774,4.48,3.74
775,4.48,3.74
776,4.48,3.74
777,4.48,3.74
778,4.48,3.74
779,4.48,3.73
781,4.48,3.73
782,4.48,3.73
783,4.48,3.73
784,4.48,3.73
785,4.48,3.73
786,4.48,3.73
787,4.48,3.73
788,4.48,3.73
789,4.48,3.73
790,4.48,3.73
791,4.48,3.72
792,4.48,3.72
793,4.48,3.72
795,4.48,3.72
796,4.48,3.72
797,4.48,3.72
798,4.49,3.72
799,4.49,3.72
800,4.49,3.71
801,4.48,3.71
802,4.48,3.71
803,4.48,3.71
804,4.48,3.71
805,4.48,3.71
806,4.48,3.71
807,4.49,3.71
809,4.48,3.71
811,4.48,3.71
812,4.48,3.71
813,4.48,3.71
814,4.48,3.70
815,4.48,3.70
816,4.48,3.70
817,4.48,3.70
818,4.48,3.70
819,4.48,3.70
820,4.48,3.70
821,4.48,3.70
822,4.48,3.70
823,4.48,3.70
825,4.48,3.70
826,4.48,3.70
827,4.48,3.70
828,4.48,3.70
829,4.48,3.70
830,4.48,3.70
831,4.48,3.70
832,4.48,3.70
833,4.48,3.70
834,4.49,3.70
835,4.48,3.70
836,4.48,3.70
837,4.48,3.70
838,4.48,3.70
840,4.49,3.69
841,4.48,3.69
842,4.48,3.69
843,4.48,3.69
844,4.48,3.69
845,4.48,3.69
846,4.48,3.69
847,4.48,3.69
848,4.48,3.69
849,4.48,3.69
850,4.48,3.69
851,4.48,3.69
854,4.48,3.69
855,4.48,3.69
856,4.48,3.68
857,4.48,3.68
858,4.48,3.68
859,4.48,3.68
860,4.48,3.68
861,4.48,3.68
862,4.48,3.68
863,4.48,3.68
864,4.48,3.68
865,4.48,3.68
866,4.48,3.68
867,4.48,3.68
869,4.48,3.68
870,4.48,3.68
871,4.48,3.68
872,4.48,3.68
873,4.48,3.68
874,4.48,3.68
875,4.48,3.68
876,4.48,3.68
877,4.48,3.68
878,4.48,3.68
879,4.48,3.68
880,4.48,3.68
881,4.48,3.68
883,4.48,3.68
884,4.48,3.68
885,4.48,3.68
886,4.48,3.68
887,4.48,3.68
888,4.48,3.68
889,4.48,3.67
890,4.48,3.68
891,4.48,3.67
892,4.48,3.67
893,4.48,3.67
894,4.48,3.67
897,4.48,3.67
898,4.48,3.67
899,4.48,3.67
900,4.48,3.67
901,4.48,3.67
902,4.48,3.67
903,4.48,3.67
904,4.48,3.67
905,4.48,3.67
906,4.48,3.67
907,4.48,3.67
908,4.48,3.67
909,4.48,3.67
911,4.48,3.67
912,4.48,3.67
913,4.48,3.67
914,4.48,3.67
915,4.48,3.67
916,4.48,3.67
917,4.48,3.67
918,4.48,3.67
919,4.48,3.67
920,4.48,3.67
921,4.48,3.67
922,4.48,3.67
924,4.48,3.67
925,4.48,3.67
926,4.48,3.67
927,4.48,3.67
928,4.48,3.67
929,4.48,3.67
930,4.48,3.67
931,4.48,3.67
932,4.48,3.67
933,4.48,3.67
934,4.48,3.67
935,4.48,3.67
937,4.48,3.67
939,4.48,3.66
940,4.48,3.66
941,4.48,3.66
942,4.48,3.66
943,4.48,3.66
944,4.48,3.66
945,4.48,3.66
946,4.48,3.66
947,4.48,3.66
948,4.48,3.66
949,4.48,3.66
951,4.48,3.66
952,4.48,3.66
953,4.48,3.66
954,4.48,3.66
955,4.48,3.66
956,4.48,3.66
957,4.48,3.67
958,4.48,3.66
959,4.48,3.66
960,4.48,3.66
961,4.48,3.66
962,4.48,3.66
963,4.48,3.66
965,4.48,3.66
966,4.48,3.66
967,4.48,3.66
968,4.48,3.66
969,4.48,3.66
970,4.48,3.66
971,4.48,3.66
972,4.48,3.66
973,4.48,3.66
974,4.48,3.66
975,4.48,3.66
976,4.48,3.66
977,4.48,3.66
979,4.48,3.66
980,4.48,3.66
982,4.48,3.66
983,4.48,3.66
984,4.48,3.66
985,4.48,3.66
986,4.48,3.66
987,4.48,3.66
988,4.48,3.66
989,4.48,3.66
990,4.48,3.66
991,4.48,3.66
993,4.48,3.66
994,4.48,3.66
995,4.48,3.66
996,4.48,3.66
997,4.48,3.66
998,4.48,3.66
999,4.48,3.66
1000,4.48,3.66
1001,4.48,3.66
1002,4.48,3.66
1004,4.48,3.66
1005,4.48,3.66
1006,4.48,3.66
1007,4.48,3.66
1008,4.48,3.66
1009,4.48,3.66
1010,4.48,3.66
1011,4.48,3.66
1013,4.48,3.66
1014,4.48,3.66
1015,4.48,3.66
1016,4.48,3.66
1017,4.48,3.66
1018,4.48,3.66
1019,4.48,3.66
1021,4.48,3.66
1022,4.48,3.66
1024,4.48,3.66
1025,4.48,3.66
1026,4.48,3.66
1027,4.48,3.66
1028,4.48,3.66
1029,4.48,3.66
1031,4.48,3.66
1032,4.48,3.66
1033,4.48,3.66
1034,4.48,3.66
1035,4.48,3.66
1036,4.48,3.66
1037,4.48,3.66
1038,4.48,3.66
1040,4.48,3.66
1041,4.48,3.66
1042,4.48,3.66
1043,4.48,3.66
1044,4.48,3.66
1045,4.48,3.66
1046,4.48,3.66
1047,4.48,3.66
1049,4.48,3.66
1050,4.48,3.66
1051,4.48,3.66
1052,4.48,3.66
1053,4.48,3.66
1054,4.48,3.66
1055,4.48,3.66
1056,4.48,3.66
1058,4.48,3.66
1059,4.48,3.66
1060,4.48,3.66
1061,4.48,3.66
1062,4.48,3.67
1063,4.48,3.66
1064,4.48,3.66
1065,4.48,3.66
1068,4.48,3.66
1069,4.48,3.66
1070,4.48,3.66
1071,4.48,3.66
1072,4.48,3.67
1073,4.48,3.67
1074,4.48,3.66
1075,4.48,3.67
1077,4.48,3.67
1078,4.48,3.67
1079,4.48,3.67
1080,4.48,3.67
1081,4.48,3.67
1082,4.48,3.67
1083,4.48,3.66
1084,4.48,3.67
1086,4.48,3.67
1087,4.48,3.67
1088,4.48,3.67
1089,4.48,3.67
1090,4.48,3.67
1091,4.48,3.66
1092,4.48,3.67
1094,4.48,3.67
1095,4.48,3.67
1096,4.48,3.67
1097,4.48,3.67
1098,4.48,3.66
1099,4.48,3.66
1100,4.48,3.66
1101,4.48,3.66
1103,4.48,3.66
1104,4.48,3.66
1105,4.48,3.66
1106,4.48,3.66
1107,4.48,3.66
1108,4.48,3.66
1110,4.48,3.67
1111,4.48,3.66
1113,4.48,3.66
1114,4.48,3.66
1115,4.48,3.67
1116,4.48,3.67
1117,4.48,3.67
1118,4.48,3.67
1119,4.48,3.67
1120,4.48,3.67
1122,4.48,3.67
1123,4.48,3.67
1124,4.48,3.67
1125,4.48,3.67
1126,4.48,3.67
1127,4.48,3.67
1128,4.48,3.67
1129,4.48,3.67
1131,4.48,3.67
1132,4.48,3.68
1133,4.48,3.68
1134,4.48,3.68
1135,4.48,3.68
1136,4.48,3.68
1137,4.48,3.68
1139,4.48,3.68
1140,4.48,3.68
1141,4.48,3.68
1142,4.48,3.69
1143,4.48,3.69
1144,4.48,3.69
1145,4.48,3.69
1146,4.48,3.69
1148,4.48,3.69
1149,4.48,3.69
1150,4.48,3.69
1152,4.48,3.69
1153,4.48,3.69
1154,4.48,3.70
1155,4.48,3.70
1156,4.48,3.70
1158,4.48,3.70
1159,4.48,3.70
1160,4.48,3.70
1161,4.48,3.70
1162,4.48,3.70
1163,4.48,3.70
1164,4.48,3.70
1165,4.48,3.70
1167,4.48,3.70
1168,4.48,3.70
1169,4.48,3.71
1170,4.48,3.71
1171,4.48,3.71
1172,4.48,3.71
1173,4.48,3.71
1174,4.48,3.71
1176,4.48,3.71
1177,4.48,3.71
1178,4.48,3.72
1179,4.48,3.72
1180,4.48,3.72
1181,4.48,3.72
1182,4.48,3.72
1183,4.48,3.72
1185,4.48,3.72
1186,4.48,3.72
1187,4.48,3.72
1188,4.48,3.73
1189,4.48,3.73
1190,4.48,3.73
1191,4.48,3.73
1192,4.48,3.73
1195,4.48,3.73
1196,4.48,3.73
1197,4.48,3.74
1198,4.48,3.74
1199,4.48,3.74
1200,4.48,3.74
1201,4.48,3.74
1202,4.48,3.74
1204,4.48,3.74
1205,4.48,3.74
1206,4.48,3.75
1207,4.48,3.75
1208,4.48,3.75
1209,4.48,3.75
1210,4.48,3.75
1211,4.48,3.75
1213,4.48,3.76
1214,4.48,3.76
1215,4.48,3.76
1216,4.48,3.76
1217,4.48,3.76
1218,4.48,3.76
1219,4.48,3.77
1220,4.48,3.77
1222,4.48,3.77
1223,4.48,3.77
1224,4.48,3.77
1225,4.48,3.77
1226,4.48,3.78
1227,4.48,3.78
1228,4.48,3.78
1229,4.48,3.78
1231,4.48,3.78
1232,4.48,3.79
1233,4.48,3.79
1234,4.48,3.79
1235,4.48,3.79
1236,4.48,3.79
1238,4.48,3.80
1239,4.48,3.80
1241,4.48,3.80
1242,4.48,3.80
1243,4.48,3.81
1244,4.48,3.81
1245,4.49,3.81
1246,4.48,3.81
1247,4.48,3.82
1248,4.48,3.82
1250,4.48,3.82
1251,4.48,3.83
1252,4.49,3.83
1253,4.48,3.83
1254,4.49,3.84
1255,4.49,3.84
1256,4.48,3.84
1257,4.49,3.84
1259,4.49,3.85
1260,4.49,3.85
1261,4.49,3.86
1262,4.49,3.86
1263,4.49,3.86
1264,4.49,3.87
1265,4.49,3.87
1266,4.48,3.87
1268,4.49,3.88
1269,4.49,3.88
1270,4.49,3.88
1271,4.49,3.89
1272,4.49,3.89
1273,4.49,3.89
1274,4.49,3.90
1275,4.49,3.90
1277,4.49,3.90
1278,4.49,3.90
1280,4.49,3.91
1281,4.49,3.91
1282,4.49,3.91
1283,4.49,3.91
1284,4.49,3.91
1285,4.49,3.91
1287,4.49,3.92
1288,4.49,3.92
1289,4.49,3.92
1290,4.49,3.92
1291,4.49,3.93
1292,4.49,3.93
1293,4.49,3.93
1294,4.48,3.93
1296,4.49,3.93
1297,4.49,3.94
1298,4.49,3.94
1299,4.49,3.94
1300,4.49,3.94
1301,4.49,3.94
1302,4.49,3.95
1303,4.48,3.95
1305,4.49,3.95
1306,4.49,3.95
1307,4.49,3.96
1308,4.49,3.96
1309,4.48,3.96
1310,4.48,3.96
1311,4.49,3.96
1312,4.48,3.97
1314,4.49,3.97
1315,4.49,3.97
1316,4.49,3.97
1317,4.48,3.98
1318,4.49,3.98
1319,4.49,3.98
1320,4.49,3.98
1321,4.49,3.98
1324,4.49,3.98
1325,4.49,3.98
1326,4.49,3.99
1327,4.49,3.99
1328,4.49,3.99
1329,4.49,3.99
1330,4.49,3.99
1331,4.48,3.99
1333,4.48,3.99
1334,4.48,3.99
1335,4.48,3.99
1336,4.48,3.99
1337,4.48,3.99
1338,4.48,3.99
1339,4.48,3.99
1340,4.48,3.99
1342,4.49,3.99
1343,4.49,3.99
1344,4.49,3.99
1345,4.49,3.99
1346,4.49,3.98
1347,4.49,3.98
1348,4.48,3.98
1349,4.49,3.98
1351,4.49,3.98
1352,4.49,3.97
1353,4.49,3.97
1354,4.49,3.97
1355,4.49,3.97
1356,4.49,3.97
1357,4.49,3.96
1358,4.49,3.96
1360,4.49,3.96
1361,4.49,3.96
1362,4.49,3.95
1363,4.49,3.95
1364,4.49,3.95
1366,4.49,3.94
1367,4.49,3.94
1368,4.49,3.94
1370,4.49,3.94
1371,4.49,3.93
1372,4.49,3.93
1373,4.49,3.93
1374,4.49,3.93
1375,4.49,3.92
1376,4.49,3.92
1377,4.49,3.92
1379,4.48,3.91
1380,4.48,3.91
1381,4.48,3.91
1382,4.48,3.91
1383,4.48,3.91
1384,4.48,3.91
1385,4.48,3.91
1386,4.48,3.91
1388,4.48,3.90
1389,4.48,3.90
1390,4.48,3.90
1391,4.48,3.90
1392,4.48,3.90
1393,4.48,3.90
1394,4.48,3.89
1395,4.48,3.89
1397,4.48,3.89
1398,4.48,3.89
1399,4.48,3.89
1400,4.48,3.89
1401,4.48,3.89
1402,4.48,3.88
1403,4.48,3.88
1404,4.48,3.88
1406,4.48,3.88
1408,4.48,3.88
1409,4.48,3.88
1410,4.48,3.88
1411,4.48,3.88
1412,4.48,3.88
1413,4.48,3.88
1415,4.48,3.88
1416,4.48,3.87
1417,4.48,3.87
1418,4.48,3.87
1419,4.48,3.87
1420,4.48,3.87
1421,4.48,3.87
1422,4.48,3.87
1424,4.48,3.87
1425,4.48,3.87
1426,4.48,3.87
1427,4.48,3.87
1428,4.48,3.87
1429,4.48,3.87
1430,4.48,3.87
1431,4.48,3.87
1433,4.48,3.87
1434,4.49,3.87
1435,4.49,3.87
1436,4.49,3.87
1437,4.49,3.87
1438,4.49,3.87
1439,4.49,3.87
1440,4.49,3.87
1442,4.49,3.87
1443,4.49,3.87
1444,4.49,3.87
1445,4.49,3.87
1446,4.49,3.87
1447,4.49,3.87
1448,4.49,3.87
1449,4.49,3.87
1452,4.49,3.87
1453,4.49,3.87
1454,4.49,3.87
1455,4.49,3.87
1456,4.49,3.88
1457,4.49,3.88
1458,4.49,3.88
1459,4.49,3.88
1461,4.49,3.88
1462,4.49,3.88
1463,4.49,3.88
1464,4.49,3.88
1465,4.49,3.88
1466,4.49,3.88
1467,4.49,3.88
1468,4.49,3.88
1470,4.49,3.88
1471,4.49,3.88
1472,4.49,3.88
1473,4.49,3.88
1474,4.49,3.88
1475,4.49,3.88
1476,4.49,3.88
1478,4.49,3.88
1479,4.49,3.88
1480,4.49,3.88
1481,4.49,3.88
1482,4.49,3.88
1483,4.49,3.88
1484,4.49,3.88
1485,4.49,3.89
1487,4.49,3.88
1488,4.49,3.88
1489,4.49,3.88
1490,4.49,3.89
1491,4.49,3.89
1492,4.49,3.89
1494,4.49,3.89
1495,4.49,3.89
1497,4.49,3.89
1498,4.49,3.89
1499,4.49,3.89
1500,4.49,3.89
1501,4.49,3.89
1502,4.49,3.89
1503,4.49,3.89
1504,4.49,3.89
1506,4.49,3.89
1507,4.49,3.89
1508,4.49,3.89
1509,4.50,3.89
1510,4.49,3.89
1511,4.49,3.89
1512,4.49,3.89
1513,4.49,3.89
1515,4.49,3.89
1516,4.49,3.90
1517,4.50,3.90
1518,4.49,3.89
1519,4.49,3.90
1520,4.49,3.90
1521,4.50,3.90
1522,4.49,3.90
1524,4.49,3.90
1525,4.49,3.90
1526,4.49,3.90
1527,4.49,3.90
1528,4.49,3.90
1529,4.49,3.90
1530,4.49,3.90
1531,4.50,3.90
1533,4.49,3.90
1534,4.49,3.90
1536,4.49,3.90
1537,4.49,3.90
1538,4.49,3.90
1539,4.50,3.90
1540,4.49,3.90
1541,4.50,3.90
1542,4.49,3.90
1544,4.49,3.90
1545,4.50,3.90
1546,4.50,3.90
1547,4.49,3.90
1548,4.50,3.90
1549,4.50,3.90
1550,4.49,3.91
1551,4.50,3.91
1553,4.50,3.91
1554,4.49,3.91
1555,4.50,3.91
1556,4.50,3.91
1557,4.50,3.91
1558,4.50,3.91
1559,4.50,3.91
1560,4.50,3.91
1562,4.50,3.91
1563,4.50,3.91
1564,4.50,3.91
1565,4.50,3.91
1566,4.50,3.91
1567,4.50,3.91
1568,4.50,3.91
1569,4.50,3.91
1571,4.50,3.91
1572,4.49,3.91
1573,4.50,3.91
1574,4.50,3.91
1575,4.49,3.91
1576,4.49,3.91
1577,4.49,3.91
1579,4.49,3.91
1581,4.49,3.91
1582,4.49,3.91
1583,4.49,3.91
1584,4.49,3.91
1585,4.49,3.91
1586,4.49,3.92
1587,4.49,3.92
1588,4.49,3.92
1590,4.49,3.92
1591,4.50,3.92
1592,4.50,3.92
1593,4.50,3.92
1594,4.49,3.92
1595,4.49,3.92
1596,4.50,3.92
1597,4.49,3.92
1599,4.49,3.92
1600,4.50,3.92
1601,4.50,3.92
1602,4.50,3.92
1603,4.49,3.92
1604,4.50,3.92
1605,4.49,3.92
1606,4.49,3.92
1608,4.50,3.92
1609,4.50,3.92
1610,4.49,3.92
1611,4.50,3.92
1612,4.50,3.92
1613,4.50,3.92
1614,4.50,3.93
1615,4.50,3.93
1617,4.50,3.92
1618,4.50,3.93
1619,4.50,3.93
1620,4.50,3.93
1622,4.50,3.93
1623,4.50,3.93
1624,4.50,3.93
1625,4.50,3.93
1627,4.50,3.93
1628,4.50,3.93
1629,4.50,3.93
1630,4.50,3.93
1631,4.50,3.93
1632,4.50,3.93
1633,4.50,3.93
1634,4.50,3.93
1636,4.50,3.93
1637,4.50,3.93
1638,4.50,3.93
1639,4.50,3.93
1640,4.50,3.93
1641,4.50,3.93
1642,4.50,3.93
1643,4.50,3.93
1645,4.50,3.93
1646,4.50,3.93
1647,4.50,3.93
1648,4.50,3.93
1649,4.50,3.93
1650,4.50,3.93
1651,4.50,3.93
1652,4.50,3.93
1654,4.50,3.93
1655,4.50,3.93
1656,4.50,3.94
1657,4.50,3.94
1658,4.50,3.94
1659,4.50,3.94
1660,4.50,3.94
1661,4.50,3.94
1664,4.50,3.94
1665,4.50,3.94
1666,4.50,3.94
1667,4.50,3.94
1668,4.50,3.94
1669,4.50,3.94
1670,4.50,3.94
1671,4.50,3.94
1673,4.50,3.94
1674,4.50,3.94
1675,4.50,3.94
1676,4.50,3.94
1677,4.50,3.94
1678,4.50,3.94
1679,4.50,3.94
1680,4.50,3.94
1682,4.50,3.94
1683,4.50,3.94
1684,4.50,3.94
1685,4.50,3.94
1686,4.50,3.94
1687,4.50,3.94
1688,4.50,3.94
1689,4.50,3.94
1690,4.50,3.94
1692,4.50,3.94
1693,4.50,3.94
1694,4.50,3.95
1695,4.50,3.95
1696,4.50,3.95
1697,4.50,3.94
1698,4.50,3.95
1699,4.50,3.95
1701,4.50,3.95
1702,4.50,3.95
1703,4.50,3.95
1704,4.50,3.95
1705,4.50,3.95
1707,4.50,3.95
1708,4.50,3.95
1709,4.50,3.95
1711,4.50,3.95
1712,4.50,3.95
1713,4.50,3.95
1714,4.49,3.94
1715,4.46,3.92
1716,4.43,3.90
1717,4.39,3.89
1718,4.37,3.88
1720,4.35,3.87
1721,4.35,3.87
1722,4.34,3.86
1723,4.34,3.87
1724,4.34,3.87
1725,4.33,3.87
1726,4.31,3.85
1727,4.28,3.83
1729,4.23,3.80
1730,4.18,3.77
1731,4.13,3.74
1732,4.08,3.72
1733,4.03,3.70
1734,4.00,3.68
1735,3.98,3.68
1736,3.98,3.67
1738,3.98,3.68
1739,3.99,3.69
1740,4.00,3.70
1741,4.01,3.70
1742,4.01,3.69
1743,3.99,3.68
1744,3.96,3.66
1745,3.93,3.64
1747,3.90,3.61
1748,3.86,3.59
1750,3.82,3.57
1751,3.80,3.57
1752,3.79,3.57
1753,3.80,3.58
1754,3.81,3.59
1755,3.83,3.60
1757,3.86,3.62
1758,3.88,3.63
1759,3.90,3.63
1760,3.89,3.62
1761,3.88,3.61
1762,3.86,3.59
1763,3.83,3.58
1765,3.80,3.56
1766,3.77,3.54
1767,3.75,3.53
1768,3.74,3.54
1769,3.75,3.54
1770,3.77,3.56
1771,3.79,3.57
1772,3.82,3.59
1774,3.85,3.61
1775,3.88,3.62
1776,3.88,3.61
1777,3.87,3.60
1778,3.85,3.59
1779,3.84,3.58
1780,3.81,3.56
1781,3.79,3.55
1783,3.76,3.54
1784,3.74,3.53
1785,3.75,3.54
1786,3.76,3.55
1787,3.79,3.56
1788,3.81,3.58
1789,3.84,3.61
1790,3.87,3.62
1793,3.88,3.62
1794,3.88,3.61
1795,3.87,3.60
1796,3.85,3.59
1797,3.83,3.57
1798,3.80,3.56
1799,3.78,3.54
1800,3.75,3.54
1802,3.75,3.54
1803,3.75,3.55
1804,3.77,3.56
1805,3.80,3.57
1806,3.83,3.59
1807,3.86,3.61
1808,3.87,3.61
1809,3.88,3.61
1811,3.86,3.60
1812,3.85,3.58
1813,3.83,3.57
1814,3.80,3.56
1815,3.78,3.55
1816,3.76,3.53
1817,3.74,3.53
1818,3.74,3.53
1820,3.75,3.54
1821,3.77,3.56
1822,3.80,3.57
1823,3.83,3.60
1824,3.86,3.61
1825,3.87,3.60
1826,3.86,3.60
1827,3.84,3.58
1829,3.83,3.57
1830,3.80,3.56
1831,3.78,3.55
1832,3.76,3.53
1833,3.73,3.52
1835,3.73,3.52
1836,3.73,3.53
1837,3.75,3.55
1839,3.78,3.56
1840,3.81,3.58
1841,3.84,3.60
1842,3.86,3.61
1843,3.86,3.60
1844,3.85,3.59
1845,3.83,3.58
1846,3.82,3.57
1848,3.79,3.56
1849,3.77,3.54
1850,3.74,3.53
1851,3.73,3.53
1852,3.73,3.54
1853,3.75,3.54
1854,3.77,3.56
1855,3.80,3.58
1857,3.83,3.60
1858,3.86,3.61
1859,3.86,3.60
1860,3.86,3.59
1861,3.84,3.59
1862,3.82,3.57
1863,3.80,3.56
1864,3.78,3.55
1866,3.76,3.53
1867,3.73,3.53
1868,3.73,3.53
1869,3.74,3.54
1870,3.76,3.55
1871,3.79,3.57
1872,3.82,3.59
1873,3.84,3.60
1875,3.86,3.60
1876,3.86,3.60
1878,3.84,3.59
1879,3.82,3.58
1880,3.81,3.56
1881,3.78,3.55
1882,3.76,3.54
1883,3.74,3.52
1885,3.72,3.52
1886,3.73,3.53
1887,3.74,3.54
1888,3.77,3.55
1889,3.80,3.57
1890,3.83,3.59
1891,3.85,3.60
1892,3.85,3.60
1894,3.85,3.59
1895,3.83,3.58
1896,3.81,3.56
1897,3.79,3.55
1898,3.77,3.54
1899,3.74,3.53
1900,3.72,3.52
1901,3.72,3.52
1903,3.73,3.53
1904,3.75,3.55
1905,3.78,3.56
1906,3.81,3.58
1907,3.84,3.59
1908,3.85,3.59
1909,3.84,3.58
1910,3.83,3.57
1912,3.81,3.56
1913,3.79,3.55
1914,3.77,3.54
1915,3.74,3.52
1916,3.72,3.51
1917,3.71,3.51
1918,3.71,3.52
1920,3.73,3.53
1922,3.76,3.55
1923,3.79,3.57
1924,3.82,3.59
1925,3.84,3.59
1926,3.84,3.59
1927,3.83,3.58
1928,3.82,3.57
1929,3.80,3.56
1931,3.78,3.55
1932,3.76,3.53
1933,3.73,3.52
1934,3.71,3.52
1935,3.71,3.52
1936,3.72,3.53
1937,3.75,3.54
1938,3.78,3.56
1940,3.81,3.58
1941,3.84,3.59
1942,3.84,3.59
1943,3.84,3.59
1944,3.83,3.57
1945,3.81,3.56
1946,3.79,3.55
1947,3.77,3.54
1949,3.75,3.52
1950,3.72,3.52
1951,3.71,3.52
1952,3.72,3.52
1953,3.74,3.54
1954,3.77,3.55
1955,3.80,3.57
1956,3.83,3.59
1958,3.84,3.59
1959,3.84,3.59
1960,3.83,3.58
1961,3.81,3.57
1963,3.80,3.56
1964,3.78,3.54
1965,3.75,3.53
1966,3.73,3.52
1968,3.71,3.51
1969,3.71,3.52
1970,3.72,3.53
1971,3.75,3.54
1972,3.78,3.56
1973,3.81,3.58
1974,3.83,3.59
1975,3.84,3.59
1977,3.84,3.58
1978,3.82,3.57
1979,3.81,3.56
1980,3.79,3.55
1981,3.77,3.54
1982,3.74,3.53
1983,3.72,3.52
1984,3.71,3.52
1986,3.72,3.53
1987,3.74,3.53
1988,3.77,3.55
1989,3.80,3.58
1990,3.83,3.59
1991,3.84,3.60
1992,3.85,3.59
1993,3.83,3.58
1995,3.82,3.57
1996,3.80,3.56
1997,3.78,3.55
1998,3.76,3.53
1999,3.73,3.52
2000,3.71,3.52
2001,3.72,3.52
2002,3.73,3.53
2004,3.75,3.55
2006,3.78,3.57
2007,3.82,3.59
2008,3.84,3.59
2009,3.84,3.59
2010,3.84,3.58
2011,3.82,3.57
2012,3.80,3.56
2014,3.78,3.55
2015,3.76,3.54
2016,3.74,3.52
2017,3.71,3.51
2018,3.71,3.51
2019,3.72,3.52
2020,3.74,3.54
2021,3.76,3.55
2023,3.80,3.58
2024,3.83,3.59
2025,3.84,3.59
2026,3.84,3.59
2027,3.83,3.58
2028,3.81,3.57
2029,3.80,3.56
2030,3.77,3.55
2032,3.75,3.53
2033,3.73,3.52
2034,3.71,3.52
2035,3.72,3.52
2036,3.73,3.53
2037,3.76,3.55
2038,3.79,3.57
2039,3.82,3.59
2041,3.84,3.60
2042,3.85,3.59
2043,3.84,3.58
2044,3.83,3.58
2045,3.81,3.57
2046,3.79,3.55
2048,3.77,3.54
2049,3.74,3.53
2051,3.72,3.52
2052,3.71,3.52
2053,3.72,3.53
2054,3.74,3.54
2055,3.77,3.56
2056,3.80,3.58
2057,3.83,3.59
2058,3.84,3.59
2060,3.84,3.59
2061,3.83,3.58
2062,3.81,3.57
2063,3.79,3.55
2064,3.77,3.54
2065,3.75,3.53
2066,3.72,3.52
2067,3.71,3.51
2069,3.71,3.52
2070,3.73,3.53
2071,3.75,3.55
2072,3.78,3.57
2073,3.82,3.59
2074,3.84,3.60
2075,3.84,3.59
2076,3.83,3.58
2078,3.82,3.57
2079,3.80,3.56
2080,3.78,3.55
2081,3.76,3.54
2082,3.74,3.52
2083,3.72,3.52
2084,3.71,3.52
2085,3.72,3.53
2087,3.75,3.54
2088,3.77,3.56
2089,3.81,3.58
2091,3.83,3.60
2092,3.85,3.60
2093,3.85,3.60
2094,3.83,3.58
2095,3.82,3.57
2097,3.80,3.56
2098,3.78,3.55
2099,3.75,3.53
2100,3.73,3.52
2101,3.72,3.52
2102,3.72,3.53
2103,3.74,3.54
2104,3.76,3.55
2106,3.79,3.58
2107,3.83,3.59
2108,3.84,3.59
2109,3.85,3.59
2110,3.83,3.58
2111,3.82,3.57
2112,3.80,3.56
2113,3.78,3.55
2115,3.76,3.53
2116,3.73,3.52
2117,3.71,3.51
2118,3.71,3.52
2119,3.72,3.53
2120,3.74,3.54
2121,3.77,3.56
2122,3.80,3.58
2124,3.83,3.59
2125,3.84,3.59
2126,3.84,3.59
2127,3.83,3.58
2128,3.81,3.57
2129,3.79,3.56
2130,3.77,3.54
2131,3.75,3.53
2134,3.72,3.52
2135,3.71,3.52
2136,3.72,3.53
2137,3.74,3.54
2138,3.76,3.56
2139,3.79,3.57
2140,3.83,3.60
2141,3.85,3.60
2143,3.85,3.60
2144,3.84,3.59
2145,3.82,3.58
2146,3.81,3.56
2147,3.79,3.55
2148,3.76,3.54
2149,3.74,3.53
2150,3.72,3.52
2152,3.72,3.53
2153,3.73,3.54
2154,3.75,3.55
2155,3.78,3.57
2156,3.82,3.59
2157,3.84,3.60
2158,3.85,3.59
2159,3.84,3.59
2161,3.82,3.57
2162,3.81,3.57
2163,3.79,3.55
2164,3.77,3.54
2165,3.74,3.53
2166,3.72,3.52
2167,3.71,3.52
2168,3.72,3.52
2170,3.73,3.53
2171,3.76,3.55
2172,3.79,3.57
2173,3.83,3.59
2174,3.84,3.60
2176,3.84,3.59
2177,3.84,3.59
2178,3.82,3.57
2180,3.80,3.56
2181,3.78,3.55
2182,3.76,3.53
2183,3.73,3.52
2184,3.71,3.52
2185,3.72,3.53
2186,3.73,3.53
2187,3.75,3.55
2189,3.78,3.57
2190,3.82,3.59
2191,3.84,3.60
2192,3.85,3.60
2193,3.84,3.59
2194,3.83,3.58
2195,3.81,3.57
2196,3.79,3.56
2198,3.77,3.54
2199,3.74,3.53
2200,3.72,3.52
2201,3.72,3.52
2202,3.72,3.53
2203,3.74,3.54
2204,3.77,3.56
2205,3.80,3.58
2207,3.83,3.59
2208,3.84,3.60
2209,3.84,3.59
2210,3.83,3.58
2211,3.81,3.57
2212,3.79,3.55
2213,3.77,3.54
2214,3.75,3.53
2216,3.72,3.52
2217,3.71,3.51
2219,3.71,3.52
2220,3.73,3.53
2221,3.75,3.55
2222,3.78,3.56
2223,3.81,3.59
2224,3.84,3.60
2226,3.84,3.59
2227,3.84,3.59
2228,3.82,3.57
2229,3.81,3.56
2230,3.79,3.55
2231,3.76,3.54
2232,3.74,3.53
2234,3.72,3.52
2235,3.71,3.52
2236,3.72,3.53
2237,3.74,3.54
2238,3.77,3.56
2239,3.81,3.58
2240,3.83,3.60
2241,3.85,3.60
2243,3.85,3.60
2244,3.83,3.58
2245,3.82,3.57
2246,3.80,3.56
2247,3.78,3.55
2248,3.76,3.54
2249,3.73,3.52
2250,3.72,3.53
2252,3.72,3.53
2253,3.74,3.54
2254,3.76,3.55
2255,3.79,3.58
2256,3.83,3.60
2257,3.85,3.61
2258,3.85,3.60
2259,3.85,3.59
2262,3.83,3.58
2263,3.82,3.57
2264,3.79,3.56
2265,3.77,3.55
2266,3.75,3.53
2267,3.73,3.53
2268,3.72,3.53
2269,3.74,3.54
2271,3.75,3.55
2272,3.78,3.57
2273,3.82,3.59
2274,3.84,3.60
2275,3.85,3.60
2276,3.85,3.60
2277,3.84,3.59
2278,3.82,3.58
2280,3.80,3.56
2281,3.78,3.55
2282,3.76,3.54
2283,3.73,3.53
2284,3.72,3.53
2285,3.73,3.53
2286,3.74,3.54
2287,3.77,3.56
2289,3.80,3.58
2290,3.83,3.60
2291,3.85,3.60
2292,3.85,3.60
2293,3.85,3.59
2294,3.83,3.58
2295,3.82,3.57
2296,3.79,3.56
2298,3.77,3.54
2299,3.74,3.53
2300,3.72,3.52
2301,3.72,3.53
2302,3.73,3.54
2304,3.75,3.55
2305,3.78,3.57
2306,3.81,3.59
2308,3.84,3.60
2309,3.85,3.60
2310,3.85,3.59
2311,3.83,3.58
2312,3.81,3.56
2313,3.79,3.55
2314,3.77,3.54
2315,3.75,3.53
2317,3.72,3.51
2318,3.71,3.52
2319,3.72,3.52
2320,3.74,3.53
2321,3.76,3.55
2322,3.80,3.57
2323,3.83,3.59
2324,3.85,3.60
2326,3.85,3.60
2327,3.84,3.59
2328,3.82,3.57
2329,3.81,3.56
2330,3.78,3.55
2331,3.76,3.54
2332,3.74,3.52
2333,3.72,3.52
2335,3.72,3.53
2336,3.73,3.53
2337,3.75,3.55
2338,3.79,3.57
2339,3.82,3.59
2340,3.84,3.61
2341,3.85,3.60
2342,3.85,3.59
2344,3.83,3.58
2345,3.82,3.57
2347,3.80,3.56
2348,3.78,3.55
2349,3.75,3.53
2350,3.73,3.52
2351,3.72,3.53
2352,3.73,3.53
2354,3.75,3.54
2355,3.77,3.56
2356,3.80,3.58
2357,3.83,3.60
2358,3.85,3.60
2359,3.85,3.59
2360,3.84,3.58
2361,3.82,3.57
2363,3.80,3.56
2364,3.78,3.55
2365,3.75,3.53
2366,3.73,3.52
2367,3.71,3.52
2368,3.71,3.52
2369,3.73,3.53
2370,3.75,3.54
2372,3.78,3.56
2373,3.82,3.59
2374,3.84,3.60
2375,3.85,3.60
2376,3.84,3.59
2377,3.83,3.58
2378,3.81,3.57
2379,3.79,3.56
2381,3.77,3.54
2382,3.74,3.53
2383,3.72,3.52
2384,3.72,3.52
2385,3.72,3.53
2386,3.74,3.54
2387,3.77,3.56
2388,3.80,3.58
2391,3.83,3.60
2392,3.85,3.60
2393,3.85,3.60
2394,3.84,3.59
2395,3.82,3.58
2396,3.81,3.57
2397,3.78,3.55
2398,3.76,3.54
2400,3.74,3.53
2401,3.72,3.52
2402,3.72,3.53
2403,3.74,3.54
2404,3.76,3.55
2405,3.79,3.57
2406,3.83,3.60
2407,3.85,3.60
2409,3.86,3.60
2410,3.85,3.59
2411,3.83,3.58
2412,3.82,3.57
2413,3.80,3.56
2414,3.78,3.55
2415,3.75,3.53
2416,3.73,3.52
2418,3.72,3.53
2419,3.73,3.53
2420,3.75,3.55
2421,3.78,3.56
2422,3.81,3.59
2423,3.84,3.61
2424,3.85,3.61
2425,3.85,3.60
2427,3.84,3.59
2428,3.83,3.58
2429,3.81,3.57
2430,3.79,3.56
2432,3.76,3.54
2433,3.74,3.53
2434,3.72,3.53
2435,3.73,3.53
2437,3.74,3.54
2438,3.77,3.56
2439,3.80,3.58
2440,3.83,3.60
2441,3.85,3.61
2442,3.86,3.60
2443,3.85,3.60
2444,3.83,3.58
2446,3.82,3.57
2447,3.80,3.56
2448,3.77,3.55
2449,3.75,3.53
2450,3.73,3.53
2451,3.72,3.53
2452,3.73,3.54
2453,3.75,3.55
2455,3.78,3.57
2456,3.82,3.59
2457,3.84,3.61
2458,3.86,3.61
2459,3.85,3.60
2460,3.84,3.59
2461,3.82,3.58
2462,3.81,3.57
2464,3.78,3.55
2465,3.76,3.54
2466,3.73,3.53
2467,3.72,3.53
2468,3.73,3.53
2469,3.74,3.54
2470,3.77,3.56
2471,3.80,3.58
2473,3.83,3.60
2475,3.85,3.61
2476,3.86,3.60
2477,3.85,3.59
2478,3.83,3.58
2479,3.82,3.57
2480,3.79,3.56
2481,3.77,3.55
2483,3.75,3.53
2484,3.73,3.52
2485,3.72,3.53
2486,3.73,3.53
2487,3.75,3.55
2488,3.78,3.57
2489,3.82,3.59
2490,3.84,3.60
2492,3.85,3.61
2493,3.85,3.60
2494,3.84,3.59
2495,3.82,3.58
2496,3.80,3.55
2497,3.78,3.55
2498,3.76,3.54
2499,3.73,3.53
2501,3.72,3.52
2502,3.73,3.53
2503,3.74,3.54
2504,3.77,3.56
2505,3.80,3.58
2506,3.83,3.59
2507,3.84,3.60
2508,3.84,3.59
2510,3.83,3.58
2511,3.82,3.57
2512,3.80,3.56
2513,3.78,3.55
2514,3.75,3.53
2515,3.73,3.52
2516,3.71,3.51
2518,3.71,3.52
2520,3.72,3.53
2521,3.74,3.54
2522,3.77,3.55
2523,3.80,3.58
2524,3.83,3.59
2525,3.84,3.59
2526,3.84,3.59
2527,3.82,3.58
2529,3.81,3.56
2530,3.79,3.56
2531,3.77,3.54
2532,3.74,3.53
2533,3.72,3.52
2534,3.71,3.52
2535,3.72,3.52
2536,3.74,3.53
2538,3.76,3.55
2539,3.79,3.57
2540,3.83,3.59
2541,3.84,3.60
2542,3.85,3.59
2543,3.84,3.58
2544,3.82,3.57
2545,3.80,3.56
2547,3.78,3.55
2548,3.76,3.54
2549,3.73,3.52
2550,3.72,3.52
2551,3.72,3.52
2552,3.73,3.53
2553,3.75,3.55
2554,3.78,3.56
2556,3.82,3.59
2557,3.84,3.60
2558,3.85,3.59
2560,3.84,3.59
2561,3.83,3.58
2562,3.81,3.57
2563,3.79,3.55
2564,3.77,3.54
2566,3.74,3.53
2567,3.72,3.52
2568,3.71,3.52
2569,3.72,3.53
2570,3.74,3.54
2571,3.76,3.55
2572,3.80,3.58
2573,3.83,3.59
2575,3.84,3.60
2576,3.84,3.59
2577,3.83,3.58
2578,3.82,3.57
2579,3.80,3.56
2580,3.78,3.55
2581,3.75,3.53
2582,3.73,3.52
2584,3.71,3.52
2585,3.71,3.52
2586,3.73,3.53
2587,3.75,3.55
2588,3.78,3.57
2589,3.81,3.59
2590,3.84,3.60
2591,3.84,3.60
2593,3.84,3.59
2594,3.82,3.58
2595,3.81,3.57
2596,3.79,3.55
2597,3.77,3.54
2598,3.74,3.53
2599,3.72,3.52
2600,3.71,3.52
2603,3.72,3.53
2604,3.74,3.54
2605,3.77,3.55
2606,3.80,3.58
2607,3.83,3.59
2608,3.84,3.59
2609,3.83,3.59
2610,3.82,3.58
2612,3.81,3.56
2613,3.79,3.56
2614,3.77,3.54
2615,3.74,3.53
2616,3.72,3.51
2617,3.70,3.51
2618,3.71,3.52
2619,3.72,3.52
2621,3.74,3.54
2622,3.78,3.56
2623,3.81,3.59
2624,3.83,3.60
2625,3.84,3.59
2626,3.83,3.59
2627,3.82,3.58
2628,3.80,3.57
2630,3.79,3.55
2631,3.76,3.54
2632,3.74,3.53
2633,3.72,3.52
2634,3.71,3.52
2635,3.72,3.53
2636,3.74,3.54
2637,3.77,3.56
2639,3.80,3.58
2640,3.83,3.60
2641,3.85,3.60
2642,3.84,3.59
2643,3.83,3.59
2644,3.82,3.57
2646,3.80,3.56
2647,3.78,3.55
2649,3.75,3.53
2650,3.73,3.52
2651,3.71,3.52
2652,3.72,3.53
2653,3.73,3.53
2654,3.76,3.55
2655,3.79,3.57
2656,3.82,3.60
2658,3.85,3.61
2659,3.87,3.61
2660,3.87,3.61
2661,3.86,3.60
2662,3.84,3.59
2663,3.82,3.58
2664,3.80,3.57
2665,3.78,3.55
2667,3.76,3.55
2668,3.76,3.56
2669,3.78,3.56
2670,3.80,3.58
2671,3.83,3.59
2672,3.86,3.61
2673,3.89,3.64
2674,3.91,3.65
2676,3.92,3.65
2677,3.91,3.64
2678,3.91,3.63
2679,3.89,3.62
2680,3.87,3.61
2681,3.84,3.59
2682,3.82,3.58
2684,3.81,3.58
2685,3.82,3.59
2686,3.84,3.60
2688,3.86,3.61
2689,3.89,3.63
2690,3.92,3.65
2691,3.95,3.67
2692,3.98,3.68
2694,3.98,3.68
2695,3.98,3.67
2696,3.97,3.68
2697,3.97,3.69
2698,3.97,3.69
2699,3.96,3.69
2700,3.96,3.69
2701,3.97,3.70
2703,3.99,3.71
2704,4.01,3.72
2705,4.04,3.73
2706,4.07,3.74
2707,4.09,3.76
2708,4.12,3.77
2709,4.15,3.79
2710,4.18,3.80
2712,4.20,3.81
2713,4.23,3.83
2714,4.25,3.84
2715,4.28,3.85
2716,4.30,3.86
2717,4.32,3.87
2718,4.35,3.88
2719,4.36,3.89
2721,4.38,3.91
2722,4.40,3.91
2723,4.42,3.92
2724,4.43,3.93
2725,4.45,3.94
2726,4.46,3.95
2727,4.48,3.95
2728,4.49,3.96
2731,4.50,3.97
2732,4.51,3.97
2733,4.52,3.98
2734,4.53,3.99
2735,4.53,3.99
2736,4.54,3.99
2737,4.55,4.00
2738,4.55,4.00
2740,4.56,4.01
2741,4.56,4.01
2742,4.56,4.01
2743,4.56,4.01
2744,4.57,4.01
2745,4.57,4.02
2746,4.57,4.02
2747,4.57,4.02
2749,4.57,4.02
2750,4.57,4.02
2751,4.57,4.02
2752,4.57,4.02
2753,4.56,4.02
2754,4.56,4.02
2755,4.56,4.01
2756,4.56,4.02
2758,4.56,4.02
2759,4.56,4.01
2760,4.56,4.01
2761,4.55,4.01
2762,4.55,4.01
2763,4.55,4.01
2764,4.55,4.01
2765,4.54,4.01
2767,4.54,4.01
2768,4.54,4.01
2769,4.54,4.01
2770,4.54,4.01
2771,4.53,4.01
2772,4.53,4.01
2774,4.53,4.00
2775,4.53,4.00
2777,4.53,4.00
2778,4.53,4.00
2779,4.53,4.00
2780,4.52,4.00
2781,4.52,4.00
2782,4.52,4.00
2783,4.52,4.00
2784,4.52,4.00
2785,4.52,4.00
2787,4.52,4.00
2788,4.52,4.00
2789,4.52,4.00
2790,4.51,4.00
2791,4.51,4.00
2792,4.51,4.00
2793,4.51,4.00
2794,4.51,4.00
2796,4.51,4.00
2797,4.51,4.00
2798,4.51,4.00
2799,4.51,4.00
2800,4.51,4.00
2801,4.51,4.00
2802,4.51,4.00
2803,4.51,4.00
2804,4.51,4.00
2806,4.51,4.00
2807,4.51,4.00
2808,4.51,4.00
2809,4.51,4.00
2810,4.51,4.00
2811,4.51,4.00
2812,4.51,4.00
2813,4.51,4.00
2816,4.51,4.00
2817,4.51,4.00
2818,4.51,4.00
2819,4.51,4.01
2820,4.51,4.00
2821,4.51,4.00
2822,4.51,4.00
2823,4.51,4.00
2824,4.51,4.01
2826,4.51,4.01
2827,4.51,4.01
2828,4.51,4.01
2829,4.51,4.01
2830,4.51,4.01
2831,4.51,4.01
2832,4.51,4.01
2833,4.51,4.01
2835,4.51,4.01
2836,4.51,4.01
2837,4.51,4.01
2838,4.51,4.01
2839,4.51,4.01
2840,4.51,4.01
2841,4.51,4.01
2842,4.52,4.01
2844,4.51,4.01
2845,4.51,4.01
2846,4.51,4.01
2847,4.51,4.01
2848,4.51,4.01
2849,4.51,4.01
2850,4.51,4.01
2851,4.52,4.01
2853,4.52,4.01
2854,4.52,4.01
2855,4.52,4.01
2856,4.52,4.01
2857,4.52,4.01
2859,4.52,4.01
2860,4.52,4.01
2861,4.51,4.01
2863,4.52,4.01
2864,4.51,4.01
2865,4.51,4.01
2866,4.51,4.01
2867,4.51,4.01
2868,4.51,4.01
2869,4.51,4.01
2870,4.51,4.01
2872,4.51,4.01
2873,4.51,4.01
2874,4.51,4.01
2875,4.51,4.01
2876,4.51,4.01
2877,4.51,4.01
2878,4.51,4.01
2879,4.51,4.01
2881,4.51,4.01
2882,4.51,4.01
2883,4.51,4.01
2884,4.51,4.01
2885,4.51,4.01
2886,4.51,4.01
2887,4.51,4.01
2888,4.51,4.01
2890,4.51,4.01
2891,4.51,4.01
2892,4.51,4.01
2893,4.51,4.01
2894,4.51,4.01
2895,4.51,4.01
2896,4.51,4.01
2897,4.51,4.01
2899,4.51,4.01
2900,4.51,4.01
2902,4.51,4.01
2903,4.51,4.01
2904,4.51,4.01
2905,4.51,4.01
2906,4.51,4.01
2907,4.51,4.01
2909,4.51,4.01
2910,4.51,4.01
2911,4.51,4.01
2912,4.51,4.01
2913,4.51,4.01
2914,4.51,4.01
2915,4.51,4.01
2916,4.51,4.01
2918,4.51,4.01
2919,4.51,4.01
2920,4.51,4.01
2921,4.51,4.01
2922,4.51,4.01
2923,4.51,4.01
2924,4.51,4.01
2925,4.51,4.01
2927,4.51,4.01
2928,4.51,4.01
2929,4.51,4.01
2930,4.51,4.01
2931,4.51,4.01
2932,4.51,4.01
2933,4.51,4.01
2934,4.51,4.01
2936,4.51,4.01
2937,4.51,4.01
2938,4.51,4.01
2939,4.51,4.01
2940,4.51,4.01
2941,4.51,4.01
2942,4.51,4.01
2944,4.51,4.01
2946,4.51,4.01
2947,4.51,4.01
2948,4.51,4.01
2949,4.51,4.01
2950,4.51,4.01
2951,4.51,4.01
2952,4.51,4.01
2953,4.51,4.01
2955,4.51,4.01
2956,4.51,4.01
2957,4.51,4.01
2958,4.51,4.01
2959,4.51,4.01
2960,4.51,4.01
2961,4.51,4.01
2962,4.51,4.01
2964,4.51,4.01
2965,4.51,4.01
2966,4.51,4.01
2967,4.51,4.01
2968,4.51,4.01
2969,4.51,4.01
2970,4.51,4.01
2971,4.51,4.01
2973,4.51,4.01
2974,4.51,4.01
2975,4.51,4.01
2976,4.51,4.01
2977,4.51,4.01
2978,4.51,4.01
2979,4.51,4.00
2980,4.51,4.01
2982,4.51,4.01
2983,4.51,4.01
2984,4.51,4.01
2985,4.51,4.01
2987,4.51,4.01
2988,4.51,4.01
2989,4.51,4.01
2990,4.51,4.01
2992,4.51,4.01
2993,4.51,4.01
2994,4.51,4.01
2995,4.51,4.01
2996,4.51,4.01
2997,4.51,4.01
2998,4.51,4.01
2999,4.51,4.01
3001,4.51,4.01
3002,4.51,4.01
3003,4.51,4.01
3004,4.51,4.01
3005,4.51,4.01
3006,4.51,4.01
3007,4.51,4.01
3008,4.51,4.01
3010,4.51,4.01
3011,4.51,4.01
3012,4.51,4.01
3013,4.51,4.01
3014,4.51,4.01
3015,4.51,4.01
3016,4.51,4.01
3017,4.51,4.01
3019,4.51,4.01
3020,4.51,4.01
3021,4.51,4.01
3022,4.51,4.01
3023,4.51,4.01
3024,4.51,4.01
3025,4.51,4.01
3026,4.51,4.01
3028,4.51,4.01
3030,4.51,4.01
3031,4.51,4.01
3032,4.51,4.01
3033,4.51,4.01
3034,4.51,4.01
3035,4.51,4.01
3036,4.51,4.01
3038,4.51,4.01
3039,4.51,4.01
3040,4.51,4.02
3041,4.51,4.02
3042,4.51,4.02
3043,4.51,4.02
3044,4.51,4.02
3045,4.51,4.02
3047,4.51,4.02
3048,4.51,4.02
3049,4.51,4.02
3050,4.51,4.02
3051,4.51,4.02
3052,4.51,4.02
3053,4.51,4.02
3054,4.51,4.02
3056,4.51,4.02
3057,4.51,4.02
3058,4.51,4.02
3059,4.51,4.02
3060,4.51,4.02
3061,4.51,4.02
3062,4.51,4.02
3063,4.51,4.02
3065,4.51,4.02
3066,4.51,4.02
3067,4.51,4.02
3068,4.51,4.02
3069,4.51,4.02
3070,4.51,4.02
3072,4.51,4.02
3073,4.51,4.02
3075,4.51,4.02
3076,4.51,4.02
3077,4.51,4.02
3078,4.51,4.02
3079,4.51,4.02
3080,4.51,4.02
3081,4.51,4.02
3082,4.51,4.02
3084,4.51,4.02
3085,4.51,4.02
3086,4.51,4.02
3087,4.51,4.02
3088,4.51,4.03
3089,4.51,4.03
3090,4.51,4.03
3091,4.51,4.03
3093,4.51,4.03
3094,4.51,4.03
3095,4.51,4.03
3096,4.51,4.03
3097,4.51,4.03
3098,4.51,4.03
3099,4.51,4.03
3100,4.51,4.03
3102,4.51,4.03
3103,4.51,4.03
3104,4.51,4.03
3105,4.51,4.03
3106,4.51,4.03
3107,4.51,4.03
3108,4.51,4.03
3109,4.51,4.03
3111,4.51,4.03
3112,4.51,4.04
3113,4.51,4.03
3115,4.51,4.04
3116,4.51,4.04
3117,4.51,4.04
3118,4.51,4.04
3119,4.51,4.04
3121,4.51,4.04
3122,4.51,4.04
3123,4.51,4.04
3124,4.51,4.04
3125,4.51,4.04
3126,4.51,4.04
3127,4.51,4.04
3129,4.51,4.04
3130,4.51,4.04
3131,4.51,4.04
3132,4.51,4.04
3133,4.51,4.04
3134,4.51,4.04
3135,4.51,4.05
3136,4.51,4.05
3138,4.51,4.05
3139,4.51,4.05
3140,4.51,4.05
3141,4.51,4.05
3142,4.51,4.05
3143,4.51,4.05
3144,4.51,4.05
3145,4.51,4.05
3147,4.51,4.05
3148,4.51,4.05
3149,4.51,4.05
3150,4.51,4.05
3151,4.51,4.06
3152,4.51,4.06
3153,4.51,4.06
3154,4.51,4.06
3156,4.51,4.06
3158,4.51,4.06
3159,4.51,4.06
3160,4.51,4.06
3161,4.51,4.06
3162,4.51,4.06
3163,4.51,4.06
3164,4.51,4.06
3166,4.51,4.07
3167,4.51,4.07
3168,4.51,4.07
3169,4.51,4.07
3170,4.51,4.07
3171,4.51,4.07
3172,4.51,4.07
3173,4.51,4.07
3175,4.51,4.07
3176,4.51,4.07
3177,4.51,4.07
3178,4.51,4.07
3179,4.51,4.07
3180,4.51,4.07
3181,4.51,4.07
3183,4.51,4.07
3184,4.51,4.07
3185,4.51,4.07
3186,4.51,4.07
3187,4.51,4.07
3188,4.51,4.08
3189,4.51,4.08
3190,4.51,4.08
3192,4.51,4.08
3193,4.51,4.08
3194,4.51,4.08
3195,4.51,4.08
3196,4.51,4.08
3197,4.51,4.08
3198,4.51,4.08
3200,4.51,4.08
3202,4.51,4.08
3203,4.51,4.08
3204,4.51,4.09
3205,4.51,4.09
3206,4.51,4.09
3207,4.51,4.09
3208,4.51,4.09
3209,4.51,4.09
3211,4.51,4.09
3212,4.51,4.09
3213,4.51,4.09
3214,4.51,4.09
3215,4.51,4.09
3216,4.51,4.09
3217,4.51,4.09
3219,4.51,4.09
3220,4.51,4.09
3221,4.51,4.09
3222,4.51,4.09
3223,4.51,4.09
3224,4.51,4.09
3225,4.51,4.09
3226,4.51,4.09
3228,4.51,4.09
3229,4.51,4.09
3230,4.51,4.09
3231,4.51,4.09
3232,4.51,4.09
3233,4.51,4.09
3234,4.51,4.09
3235,4.51,4.09
3237,4.51,4.09
3238,4.51,4.09
3239,4.51,4.09
3240,4.51,4.10
3241,4.51,4.09
3243,4.51,4.10
3244,4.51,4.10
3245,4.51,4.10
3247,4.51,4.09
3248,4.51,4.09
3249,4.51,4.10
3250,4.51,4.10
3251,4.51,4.10
3252,4.51,4.10
3253,4.51,4.10
3254,4.51,4.10
3256,4.51,4.10
3257,4.51,4.10
3258,4.51,4.10
3259,4.51,4.10
3260,4.51,4.10
3261,4.51,4.10
3262,4.51,4.10
3263,4.51,4.10
3265,4.51,4.10
3266,4.51,4.10
3267,4.51,4.09
3268,4.51,4.09
3269,4.51,4.09
3270,4.51,4.09
3271,4.51,4.09
3272,4.51,4.09
3274,4.51,4.10
3275,4.51,4.10
3276,4.51,4.10
3277,4.51,4.10
3278,4.51,4.10
3279,4.51,4.10
3280,4.51,4.10
3281,4.51,4.10
3283,4.51,4.09
3284,4.51,4.09
3286,4.51,4.09
3287,4.51,4.09
3288,4.51,4.09
3289,4.51,4.09
3290,4.51,4.09
3291,4.51,4.09
3293,4.51,4.09
3294,4.51,4.09
3295,4.51,4.09
3296,4.51,4.09
3297,4.51,4.09
3298,4.51,4.09
3299,4.51,4.09
3300,4.51,4.09
3302,4.51,4.09
3303,4.51,4.09
3304,4.51,4.09
3305,4.51,4.08
3306,4.51,4.08
3307,4.51,4.08
3308,4.51,4.08
3309,4.51,4.08
3311,4.51,4.08
3312,4.51,4.08
3313,4.51,4.08
3314,4.51,4.08
3315,4.51,4.08
3316,4.51,4.08
3317,4.51,4.07
3318,4.51,4.07
3320,4.51,4.07
3321,4.51,4.07
3322,4.51,4.07
3323,4.51,4.07
3324,4.51,4.07
3325,4.51,4.07
3326,4.51,4.07
3328,4.51,4.07
3330,4.51,4.07
3331,4.51,4.07
3332,4.51,4.06
3333,4.51,4.06
3334,4.51,4.06
3335,4.51,4.06
3336,4.51,4.06
3337,4.51,4.06
3339,4.51,4.06
3340,4.51,4.06
3341,4.51,4.06
3342,4.51,4.06
3343,4.51,4.06
3344,4.51,4.06
3345,4.51,4.06
3347,4.51,4.05
3348,4.51,4.05
3349,4.51,4.05
3350,4.51,4.05
3351,4.51,4.05
3352,4.51,4.05
3353,4.51,4.05
3354,4.51,4.05
3356,4.51,4.04
3357,4.51,4.04
3358,4.51,4.04
3359,4.51,4.04
3360,4.51,4.04
3361,4.51,4.04
3362,4.51,4.03
3363,4.51,4.03
3365,4.51,4.03
3366,4.51,4.03
3367,4.51,4.03
3368,4.51,4.03
3369,4.51,4.02
3371,4.51,4.02
3372,4.51,4.02
3373,4.51,4.02
3375,4.51,4.02
3376,4.51,4.02
3377,4.51,4.02
3378,4.51,4.01
3379,4.51,4.01
3380,4.51,4.01
3381,4.50,4.01
3382,4.51,4.01
3384,4.51,4.00
3385,4.51,4.00
3386,4.51,4.00
3387,4.51,4.00
3388,4.51,3.99
3389,4.50,3.99
3390,4.50,3.99
3391,4.51,3.99
3393,4.51,3.99
3394,4.50,3.98
3395,4.50,3.98
3396,4.50,3.98
3397,4.51,3.98
3398,4.51,3.97
3399,4.51,3.97
3400,4.50,3.97
3402,4.50,3.97
3403,4.50,3.96
3404,4.50,3.96
3405,4.50,3.96
3406,4.50,3.96
3407,4.50,3.95
3408,4.50,3.95
3409,4.50,3.95
3410,4.51,3.95
3412,4.50,3.94
3414,4.50,3.94
3415,4.50,3.94
3416,4.50,3.94
3417,4.50,3.93
3418,4.50,3.93
3419,4.50,3.93
3420,4.50,3.93
3422,4.50,3.93
3423,4.50,3.92
3424,4.50,3.92
3425,4.50,3.92
3426,4.50,3.92
3427,4.50,3.91
3428,4.50,3.91
3429,4.50,3.91
3431,4.50,3.91
3432,4.50,3.91
3433,4.50,3.91
3434,4.50,3.90
3435,4.50,3.90
3436,4.50,3.90
3437,4.50,3.89
3438,4.50,3.89
3440,4.50,3.89
3441,4.50,3.89
3442,4.50,3.88
3443,4.50,3.88
3444,4.50,3.88
3445,4.50,3.88
3446,4.50,3.88
3447,4.50,3.87
3449,4.50,3.87
3450,4.50,3.87
3451,4.50,3.86
3452,4.50,3.86
3453,4.50,3.86
3454,4.50,3.86
3456,4.50,3.85
3457,4.50,3.85
3459,4.50,3.85
3460,4.50,3.85
3461,4.50,3.84
3462,4.50,3.84
3463,4.50,3.84
3464,4.50,3.84
3465,4.50,3.83
3466,4.50,3.83
3468,4.50,3.83
3469,4.50,3.83
3470,4.50,3.83
3471,4.50,3.82
3472,4.50,3.82
3473,4.50,3.82
3474,4.50,3.82
3475,4.50,3.82
3477,4.50,3.81
3478,4.50,3.81
3479,4.50,3.81
3480,4.50,3.81
3481,4.50,3.80
3482,4.50,3.80
3483,4.50,3.80
3484,4.50,3.80
3486,4.50,3.80
3487,4.50,3.79
3488,4.50,3.79
3489,4.50,3.79
3490,4.50,3.79
3491,4.50,3.79
3492,4.50,3.78
3493,4.50,3.78
3495,4.50,3.78
3496,4.50,3.78
3497,4.50,3.78
3499,4.50,3.78
3500,4.50,3.77
3501,4.50,3.77
3502,4.50,3.77
3503,4.50,3.77
3505,4.50,3.77
3506,4.50,3.77
3507,4.50,3.76
3508,4.50,3.76
3509,4.50,3.76
3510,4.50,3.76
3511,4.50,3.76
3512,4.50,3.76
3514,4.50,3.76
3515,4.50,3.75
3516,4.50,3.75
3517,4.50,3.75
3518,4.50,3.75
3519,4.50,3.75
3520,4.50,3.75
3521,4.50,3.75
3523,4.50,3.75
3524,4.50,3.74
3525,4.50,3.74
3526,4.50,3.74
3527,4.50,3.74
3528,4.50,3.74
3529,4.50,3.74
3530,4.50,3.74
3532,4.50,3.74
3533,4.50,3.74
3534,4.50,3.74
3535,4.50,3.73
3536,4.50,3.73
3537,4.50,3.73
3538,4.50,3.73
3539,4.50,3.73
3542,4.50,3.73
3543,4.50,3.73
3544,4.50,3.73
3545,4.50,3.73
3546,4.50,3.73
3547,4.50,3.73
3548,4.50,3.73
3549,4.50,3.73
3551,4.50,3.72
3552,4.50,3.72
3553,4.50,3.72
3554,4.50,3.72
3555,4.50,3.72
3556,4.50,3.72
3557,4.50,3.72
3558,4.50,3.72
3560,4.50,3.72
3561,4.50,3.72
3562,4.50,3.72
3563,4.50,3.72
3564,4.50,3.72
3565,4.50,3.72
3566,4.50,3.72
3567,4.50,3.71
3569,4.50,3.71
3570,4.50,3.71
3571,4.50,3.71
3572,4.50,3.71
3573,4.50,3.71
3574,4.50,3.71
3575,4.50,3.71
3576,4.50,3.71
3578,4.50,3.71
3579,4.50,3.71
3580,4.50,3.71
3581,4.50,3.71
3582,4.50,3.71
3584,4.50,3.71
3585,4.50,3.71
3586,4.50,3.71
3588,4.50,3.71
3589,4.50,3.71
3590,4.50,3.71
3591,4.50,3.71
3592,4.50,3.71
3593,4.50,3.71
3594,4.50,3.71
3595,4.50,3.71
3597,4.50,3.71
3598,4.50,3.71
3599,4.50,3.71
3600,4.50,3.71
3601,4.50,3.71
3602,4.50,3.71
3603,4.50,3.71
3604,4.50,3.71
3606,4.50,3.71
3607,4.50,3.71
3608,4.50,3.71
3609,4.50,3.71
3610,4.50,3.71
3611,4.50,3.71
3612,4.50,3.71
3613,4.50,3.71
3615,4.50,3.70
3616,4.50,3.71
3617,4.50,3.71
3618,4.50,3.71
3619,4.50,3.71
3620,4.50,3.71
3621,4.50,3.71
3622,4.50,3.71
3624,4.50,3.71
3625,4.50,3.71
3627,4.50,3.71
3628,4.50,3.71
3629,4.50,3.71
3630,4.50,3.71
3631,4.50,3.71
3632,4.50,3.71
3634,4.50,3.71
3635,4.50,3.71
3636,4.50,3.71
3637,4.50,3.71
3638,4.50,3.71
3639,4.50,3.71
3640,4.50,3.71
3641,4.50,3.71
3643,4.50,3.71
3644,4.50,3.71
3645,4.50,3.71
3646,4.50,3.71
3647,4.50,3.71
3648,4.50,3.71
3649,4.50,3.71
3650,4.50,3.71
3652,4.50,3.71
3653,4.50,3.71
3654,4.50,3.71
3655,4.50,3.70
3656,4.50,3.71
3657,4.50,3.71
3658,4.50,3.71
3659,4.50,3.70
3661,4.50,3.70
3662,4.50,3.70
3663,4.50,3.70
3664,4.50,3.70
3665,4.50,3.70
3666,4.50,3.70
3667,4.50,3.70
3668,4.50,3.70
3670,4.50,3.70
3672,4.50,3.70
3673,4.50,3.70
3674,4.50,3.70
3675,4.50,3.70
3676,4.50,3.70
3677,4.50,3.70
3678,4.50,3.70
3679,4.50,3.70
3681,4.50,3.70
3682,4.50,3.70
3683,4.50,3.70
3684,4.50,3.70
3685,4.50,3.70
3686,4.50,3.70
3687,4.50,3.70
3688,4.50,3.70
3689,4.50,3.70
3691,4.50,3.70
3692,4.50,3.70
3693,4.50,3.70
3694,4.50,3.70
3695,4.50,3.70
3696,4.50,3.70
3697,4.50,3.70
3698,4.50,3.70
3700,4.50,3.70
3701,4.50,3.70
3702,4.50,3.70
3703,4.50,3.70
3704,4.50,3.70
3705,4.50,3.70
3706,4.50,3.70
3707,4.50,3.69
3709,4.50,3.69
3710,4.50,3.70
3712,4.50,3.70
3713,4.50,3.70
3714,4.50,3.70
3715,4.50,3.70
3716,4.50,3.70
3717,4.50,3.70
3719,4.50,3.70
3720,4.50,3.70
3721,4.50,3.70
3722,4.50,3.70
3723,4.50,3.70
3724,4.50,3.70
3725,4.50,3.70
3726,4.50,3.70
3727,4.50,3.70
3729,4.50,3.71
3730,4.50,3.71
3731,4.50,3.71
3732,4.50,3.71
3733,4.50,3.71
3734,4.50,3.71
3735,4.50,3.71
3736,4.50,3.71
3738,4.50,3.72
3739,4.50,3.72
3740,4.50,3.72
3741,4.50,3.72
3742,4.50,3.72
3743,4.50,3.72
3744,4.50,3.73
3745,4.50,3.73
3747,4.50,3.73
3748,4.50,3.73
3749,4.50,3.73
3750,4.50,3.73
3751,4.50,3.73
3752,4.50,3.73
3753,4.50,3.74
3755,4.50,3.74
3757,4.50,3.74
3758,4.50,3.74
3759,4.50,3.74
3760,4.50,3.74
3761,4.50,3.75
3762,4.50,3.75
3763,4.50,3.75
3764,4.50,3.75
3766,4.50,3.75
3767,4.50,3.75
3768,4.50,3.75
3769,4.50,3.76
3770,4.50,3.76
3771,4.50,3.76
3772,4.50,3.76
3773,4.50,3.76
3775,4.50,3.76
3776,4.50,3.76
3777,4.50,3.76
3778,4.50,3.77
3779,4.50,3.77
3780,4.50,3.77
3781,4.50,3.77
3782,4.50,3.77
3784,4.50,3.77
3785,4.50,3.78
3786,4.50,3.78
3787,4.50,3.78
3788,4.50,3.78
3789,4.50,3.78
3790,4.50,3.78
3791,4.50,3.78
3793,4.50,3.78
3794,4.50,3.79
3795,4.50,3.79
3796,4.50,3.79
3798,4.50,3.79
3799,4.50,3.79
3800,4.50,3.79
3801,4.50,3.79
3803,4.50,3.79
3804,4.50,3.80
3805,4.50,3.80
3806,4.50,3.80
3807,4.50,3.80
3808,4.50,3.80
3809,4.50,3.80
3810,4.50,3.80
3811,4.50,3.80
3813,4.50,3.80
3814,4.50,3.81
3815,4.50,3.81
3816,4.50,3.81
3817,4.50,3.81
3818,4.50,3.81
3819,4.50,3.81
3820,4.50,3.81
3822,4.50,3.81
3823,4.50,3.81
3824,4.50,3.82
3825,4.50,3.82
3826,4.50,3.82
3827,4.50,3.82
3828,4.50,3.82
3829,4.50,3.82
3831,4.50,3.82
3832,4.50,3.82
3833,4.50,3.82
3834,4.50,3.83
3835,4.50,3.83
3836,4.50,3.83
3837,4.50,3.83
3838,4.50,3.83
3841,4.50,3.83
3842,4.50,3.83
3843,4.50,3.83
3844,4.50,3.83
3845,4.50,3.83
3846,4.50,3.84
3847,4.50,3.84
3849,4.50,3.84
3850,4.50,3.84
3851,4.50,3.84
3852,4.50,3.84
3853,4.50,3.84
3854,4.50,3.84
3855,4.50,3.85
3856,4.50,3.85
3858,4.50,3.85
3859,4.50,3.85
3860,4.50,3.85
3861,4.50,3.85
3862,4.50,3.85
3863,4.50,3.85
3864,4.50,3.85
3865,4.50,3.85
3867,4.50,3.85
3868,4.50,3.86
3869,4.50,3.86
3870,4.50,3.86
3871,4.50,3.86
3872,4.50,3.86
3873,4.50,3.87
3874,4.50,3.87
3876,4.50,3.87
3877,4.50,3.87
3878,4.50,3.87
3879,4.50,3.87
3880,4.50,3.88
3881,4.50,3.88
3883,4.50,3.88
3884,4.50,3.88
3886,4.50,3.88
3887,4.50,3.88
3888,4.50,3.88
3889,4.50,3.89
3890,4.50,3.89
3891,4.50,3.89
3892,4.50,3.89
3893,4.50,3.89
3895,4.50,3.89
3896,4.50,3.89
3897,4.50,3.89
3898,4.50,3.89
3899,4.50,3.89
3900,4.50,3.89
3901,4.50,3.89
3902,4.50,3.89
3904,4.50,3.89
3905,4.50,3.89
3906,4.50,3.89
3907,4.50,3.89
3908,4.50,3.89
3909,4.50,3.89
3910,4.50,3.89
3911,4.50,3.89
3913,4.50,3.89
3914,4.50,3.89
3915,4.50,3.89
3916,4.50,3.89
3917,4.50,3.89
3918,4.50,3.89
3919,4.50,3.89
3920,4.50,3.89
3921,4.50,3.90
3923,4.50,3.89
3924,4.50,3.90
3926,4.50,3.90
3927,4.50,3.90
3928,4.50,3.90
3929,4.50,3.90
3930,4.50,3.90
3931,4.50,3.90
3933,4.50,3.90
3934,4.50,3.90
3935,4.50,3.90
3936,4.50,3.90
3937,4.50,3.90
3938,4.50,3.90
3939,4.50,3.90
3940,4.50,3.90
3941,4.50,3.91
3943,4.50,3.91
3944,4.50,3.91
3945,4.50,3.91
3946,4.50,3.91
3947,4.50,3.91
3948,4.50,3.91
3949,4.50,3.91
3951,4.50,3.91
3952,4.50,3.91
3953,4.51,3.91
3954,4.51,3.91
3955,4.50,3.91
3956,4.50,3.91
3957,4.51,3.91
3958,4.50,3.91
3960,4.50,3.91
3961,4.50,3.91
3962,4.50,3.91
3963,4.50,3.91
3964,4.50,3.91
3965,4.50,3.91
3966,4.50,3.91
3968,4.50,3.91
3970,4.50,3.91
3971,4.50,3.91
3972,4.50,3.91
3973,4.50,3.91
3974,4.50,3.91
3975,4.50,3.91
3976,4.50,3.91
3977,4.51,3.91
3979,4.50,3.92
3980,4.50,3.92
3981,4.50,3.91
3982,4.50,3.92
3983,4.50,3.92
3984,4.50,3.92
3985,4.50,3.92
3986,4.50,3.92
3988,4.50,3.92
3989,4.50,3.92
3990,4.50,3.92
3991,4.50,3.92
3992,4.50,3.91
3993,4.50,3.91
3994,4.50,3.91
3995,4.50,3.91
3997,4.50,3.91
3998,4.50,3.91
3999,4.50,3.91
4000,4.50,3.91
4001,4.50,3.91
4002,4.50,3.91
4003,4.50,3.91
4004,4.50,3.91
4006,4.50,3.91
4007,4.50,3.91
4008,4.50,3.91
4009,4.50,3.91
4011,4.50,3.91
4012,4.50,3.91
4013,4.50,3.91
4014,4.50,3.91
4016,4.50,3.91
4017,4.50,3.91
4018,4.50,3.91
4019,4.50,3.91
4020,4.50,3.91
4021,4.50,3.91
4022,4.50,3.91
4023,4.51,3.91
4025,4.50,3.91
4026,4.50,3.91
4027,4.50,3.91
4028,4.50,3.91
4029,4.50,3.91
4030,4.50,3.91
4031,4.50,3.91
4032,4.50,3.91
4034,4.50,3.91
4035,4.50,3.91
4036,4.50,3.91
4037,4.50,3.91
4038,4.50,3.91
4039,4.50,3.91
4040,4.50,3.91
4041,4.50,3.91
4043,4.50,3.91
4044,4.50,3.91
4045,4.50,3.91
4046,4.50,3.91
4047,4.50,3.91
4048,4.50,3.91
4049,4.50,3.91
4050,4.50,3.91
4052,4.50,3.91
4054,4.50,3.91
4055,4.50,3.91
4056,4.50,3.91
4057,4.50,3.91
4058,4.50,3.91
4059,4.50,3.91
4061,4.50,3.91
4062,4.50,3.91
4063,4.50,3.91
4064,4.50,3.91
4065,4.50,3.91
4066,4.50,3.91
4067,4.50,3.91
4068,4.50,3.91
4070,4.50,3.91
4071,4.50,3.91
4072,4.50,3.91
4073,4.50,3.91
4074,4.50,3.91
4075,4.50,3.91
4076,4.50,3.91
4078,4.50,3.91
4079,4.50,3.91
4080,4.50,3.91
4081,4.50,3.91
4082,4.50,3.91
4083,4.50,3.91
4084,4.50,3.91
4085,4.50,3.91
4087,4.50,3.90
4088,4.50,3.91
4089,4.50,3.91
4090,4.50,3.91
4091,4.50,3.91
4092,4.50,3.91
4093,4.50,3.91
4094,4.50,3.91
4097,4.50,3.91
4098,4.50,3.91
4099,4.50,3.91
4100,4.50,3.91
4101,4.50,3.91
4102,4.50,3.91
4103,4.50,3.91
4105,4.51,3.91
4106,4.51,3.91
4107,4.50,3.91
4108,4.51,3.91
4109,4.51,3.91
4110,4.51,3.91
4111,4.51,3.91
4113,4.51,3.91
4114,4.50,3.91
4115,4.51,3.91
4116,4.50,3.91
4117,4.50,3.91
4118,4.50,3.91
4119,4.50,3.91
4120,4.50,3.91
4122,4.50,3.91
4123,4.50,3.91
4124,4.50,3.91
4125,4.50,3.91
4126,4.50,3.91
4127,4.50,3.91
4128,4.50,3.91
4129,4.50,3.91
4131,4.50,3.91
4132,4.50,3.91
4133,4.50,3.91
4134,4.50,3.91
4135,4.50,3.91
4136,4.50,3.91
4137,4.50,3.91
4139,4.50,3.91
4141,4.50,3.91
4142,4.50,3.91
4143,4.50,3.91
4144,4.50,3.91
4145,4.50,3.91
4146,4.50,3.91
4147,4.50,3.91
4148,4.51,3.91
4150,4.50,3.91
4151,4.50,3.91
4152,4.50,3.91
4153,4.50,3.91
4154,4.50,3.91
4155,4.50,3.91
4156,4.50,3.91
4157,4.50,3.91
4159,4.50,3.91
4160,4.50,3.91
4161,4.50,3.91
4162,4.50,3.91
4163,4.50,3.91
4164,4.50,3.91
4165,4.50,3.91
4166,4.50,3.91
4168,4.50,3.91
4169,4.50,3.91
4170,4.50,3.92
4171,4.50,3.91
4172,4.50,3.92
4173,4.50,3.91
4174,4.50,3.92
4175,4.51,3.92
4177,4.51,3.92
4178,4.51,3.92
4179,4.51,3.92
4180,4.51,3.92
4182,4.51,3.92
4183,4.51,3.92
4184,4.51,3.92
4185,4.51,3.92
4187,4.51,3.92
4188,4.51,3.92
4189,4.51,3.92
4190,4.51,3.92
4191,4.51,3.92
4192,4.51,3.92
4193,4.51,3.92
4194,4.51,3.92
4196,4.51,3.92
4197,4.51,3.92
4198,4.51,3.92
4199,4.51,3.92
4200,4.51,3.92
4201,4.51,3.92
4202,4.51,3.92
4203,4.51,3.92
4205,4.51,3.92
4206,4.51,3.92
4207,4.51,3.93
4208,4.51,3.93
4209,4.51,3.93
4210,4.51,3.93
4211,4.51,3.93
4212,4.51,3.93
4214,4.51,3.93
4215,4.51,3.93
4216,4.51,3.93
4217,4.51,3.93
4218,4.51,3.93
4219,4.51,3.93
4220,4.51,3.93
4221,4.51,3.93
4224,4.51,3.93
4225,4.51,3.93
4226,4.51,3.93
4227,4.50,3.93
4228,4.51,3.93
4229,4.50,3.93
4230,4.51,3.93
4231,4.51,3.93
4233,4.50,3.93
4234,4.50,3.94
4235,4.50,3.94
4236,4.51,3.94
4237,4.51,3.94
4238,4.51,3.94
4239,4.50,3.94
4240,4.51,3.94
4242,4.51,3.94
4243,4.50,3.94
4244,4.50,3.94
4245,4.50,3.94
4246,4.51,3.94
4247,4.50,3.94
4248,4.51,3.94
4249,4.51,3.94
4251,4.51,3.94
4252,4.51,3.94
4253,4.51,3.94
4254,4.51,3.94
4255,4.51,3.94
4256,4.51,3.94
4257,4.51,3.94
4258,4.51,3.94
4260,4.51,3.94
4261,4.51,3.95
4262,4.51,3.95
4263,4.51,3.95
4264,4.51,3.95
4265,4.51,3.95
4267,4.51,3.95
4268,4.51,3.95
4270,4.51,3.95
4271,4.51,3.95
4272,4.51,3.95
4273,4.51,3.95
4274,4.51,3.95
4275,4.51,3.95
4276,4.51,3.95
4277,4.51,3.95
4279,4.51,3.95
4280,4.51,3.95
4281,4.51,3.95
4282,4.51,3.95
4283,4.51,3.95
4284,4.51,3.95
4285,4.51,3.95
4286,4.51,3.95
4288,4.51,3.95
4289,4.51,3.95
4290,4.51,3.95
4291,4.51,3.95
4292,4.51,3.95
4293,4.51,3.95
4294,4.51,3.95
4295,4.51,3.95
4297,4.51,3.96
4298,4.51,3.96
4299,4.51,3.96
4300,4.51,3.96
4301,4.51,3.96
4302,4.51,3.96
4303,4.51,3.96
4304,4.51,3.96
4306,4.51,3.96
4307,4.51,3.96
4308,4.51,3.96
4310,4.51,3.96
4311,4.51,3.96
4312,4.51,3.96
4313,4.51,3.96
4314,4.51,3.96
4316,4.51,3.96
4317,4.51,3.96
4318,4.51,3.96
4319,4.51,3.96
4320,4.51,3.96
4321,4.51,3.96
4322,4.51,3.96
4323,4.51,3.96
4325,4.51,3.96
4326,4.51,3.96
4327,4.51,3.96
4328,4.51,3.96
4329,4.51,3.96
4330,4.51,3.96
4331,4.51,3.96
4332,4.51,3.96
4334,4.51,3.96
4335,4.51,3.96
4336,4.51,3.96
4337,4.51,3.96
4338,4.51,3.96
4339,4.51,3.96
4340,4.51,3.96
4341,4.51,3.96
4343,4.51,3.96
4344,4.51,3.96
4345,4.51,3.97
4346,4.51,3.97
4347,4.51,3.97
4348,4.51,3.97
4349,4.51,3.97
4350,4.51,3.97
4353,4.51,3.97
4354,4.51,3.97
4355,4.51,3.97
4356,4.51,3.97
4357,4.51,3.97
4358,4.51,3.97
4359,4.51,3.97
4360,4.51,3.97
4362,4.51,3.97
4363,4.51,3.97
4364,4.51,3.97
4365,4.51,3.97
4366,4.51,3.97
4367,4.51,3.97
4368,4.51,3.97
4369,4.51,3.97
4371,4.51,3.97
4372,4.51,3.97
4373,4.51,3.97
4374,4.51,3.97
4375,4.51,3.97
4376,4.51,3.97
4377,4.51,3.97
4378,4.51,3.97
4380,4.51,3.97
4381,4.51,3.97
4382,4.51,3.97
4383,4.51,3.97
4384,4.51,3.97
4385,4.51,3.97
4386,4.51,3.97
4387,4.51,3.97
4389,4.51,3.97
4390,4.51,3.98
4391,4.51,3.98
4392,4.51,3.97
4393,4.51,3.98
4395,4.51,3.97
4396,4.51,3.98
4397,4.51,3.98
4399,4.51,3.98
4400,4.51,3.98
4401,4.51,3.98
4402,4.51,3.98
4403,4.51,3.98
4404,4.51,3.98
4405,4.51,3.98
4406,4.51,3.98
4408,4.51,3.98
4409,4.51,3.98
4410,4.51,3.98
4411,4.51,3.98
4412,4.51,3.98
4413,4.51,3.98
4414,4.51,3.98
4415,4.51,3.98
4417,4.51,3.98
4418,4.51,3.98
4419,4.51,3.98
4420,4.51,3.98
4421,4.51,3.98
4422,4.51,3.98
4423,4.51,3.98
4424,4.51,3.98
4426,4.51,3.98
4427,4.51,3.98
4428,4.51,3.98
4429,4.51,3.98
4430,4.51,3.98
4431,4.51,3.98
4432,4.51,3.98
4433,4.51,3.98
4435,4.51,3.98
4436,4.51,3.98
4438,4.51,3.98
4439,4.51,3.98
4440,4.51,3.98
4441,4.51,3.98
4442,4.51,3.98
4443,4.51,3.98
4445,4.51,3.98
4446,4.51,3.98
4447,4.51,3.98
4448,4.51,3.99
4449,4.51,3.99
4450,4.51,3.98
4451,4.51,3.99
4452,4.51,3.99
4454,4.51,3.99
4455,4.51,3.99
4456,4.51,3.99
4457,4.51,3.99
4458,4.51,3.99
4459,4.51,3.99
4460,4.51,3.99
4461,4.51,3.99
4463,4.51,3.99
4464,4.51,3.99
4465,4.51,3.99
4466,4.51,3.99
4467,4.51,3.99
4468,4.51,3.99
4469,4.51,3.99
4470,4.51,3.99
4472,4.51,3.99
4473,4.51,3.99
4474,4.51,3.99
4475,4.51,3.99
4476,4.51,3.99
4477,4.51,3.99
4478,4.51,3.99
4480,4.51,3.99
4482,4.51,3.99
4483,4.51,3.99
4484,4.51,3.99
4485,4.51,3.99
4486,4.51,3.99
4487,4.51,3.99
4488,4.51,3.99
4489,4.51,3.99
4491,4.51,3.99
4492,4.51,3.99
4493,4.51,3.99
4494,4.51,3.99
4495,4.51,3.99
4496,4.51,3.99
4497,4.51,3.99
4498,4.51,3.99
4500,4.51,4.00
4501,4.51,3.99
4502,4.51,4.00
4503,4.51,4.00
4504,4.51,4.00
4505,4.51,4.00
4506,4.51,4.00
4507,4.51,4.00
4509,4.51,4.00
4510,4.51,4.00
4511,4.51,4.00
4512,4.51,4.00
4513,4.51,4.00
4514,4.51,4.00
4515,4.51,4.00
4516,4.51,4.00
4517,4.51,4.00
4519,4.51,4.00
4520,4.51,4.00
4521,4.51,4.00
4523,4.51,4.00
4524,4.51,4.00
4525,4.51,4.00
4526,4.51,4.00
4527,4.51,4.00
4529,4.51,4.00
4530,4.51,4.00
4531,4.51,4.00
4532,4.51,4.00
4533,4.51,4.00
4534,4.51,4.00
4535,4.51,4.00
4536,4.51,4.00
4537,4.51,4.00
4539,4.51,4.00
4540,4.51,4.00
4541,4.51,4.00
4542,4.51,4.00
4543,4.51,4.00
4544,4.51,4.00
4545,4.50,3.99
4546,4.48,3.98
4548,4.45,3.95
4549,4.40,3.93
4550,4.37,3.92
4551,4.35,3.91
4552,4.35,3.91
4553,4.34,3.91
4554,4.34,3.91
4555,4.34,3.91
4557,4.34,3.91
4558,4.32,3.90
4559,4.29,3.88
4560,4.24,3.85
4561,4.20,3.82
4562,4.15,3.79
4563,4.10,3.76
4564,4.05,3.73
4567,4.01,3.72
4568,3.98,3.71
4569,3.97,3.70
4570,3.98,3.71
4571,3.98,3.71
4572,3.99,3.72
4573,4.01,3.73
4574,4.01,3.73
4576,4.00,3.71
4577,3.97,3.70
4578,3.94,3.68
4579,3.91,3.65
4580,3.87,3.63
4581,3.84,3.61
4582,3.81,3.59
4583,3.79,3.59
4585,3.79,3.60
4586,3.81,3.61
4587,3.82,3.62
4588,3.85,3.63
4589,3.87,3.65
4590,3.89,3.66
4591,3.90,3.65
4592,3.88,3.64
4594,3.86,3.63
4595,3.84,3.61
4596,3.81,3.59
4597,3.78,3.57
4598,3.76,3.56
4599,3.74,3.56
4600,3.75,3.56
4601,3.76,3.57
4603,3.78,3.59
4604,3.81,3.61
4605,3.84,3.63
4606,3.87,3.64
4608,3.88,3.64
4609,3.88,3.63
4610,3.86,3.62
4611,3.84,3.60
4613,3.82,3.59
4614,3.79,3.57
4615,3.77,3.55
4616,3.75,3.55
4617,3.74,3.55
4618,3.75,3.56
4619,3.77,3.58
4620,3.80,3.59
4622,3.83,3.62
4623,3.86,3.63
4624,3.88,3.64
4625,3.88,3.63
4626,3.86,3.62
4627,3.85,3.60
4628,3.83,3.59
4630,3.80,3.58
4631,3.78,3.56
4632,3.75,3.55
4633,3.74,3.55
4634,3.74,3.55
4635,3.76,3.56
4636,3.78,3.58
4637,3.81,3.60
4639,3.84,3.62
4640,3.86,3.63
4641,3.87,3.63
4642,3.86,3.62
4643,3.84,3.60
4644,3.83,3.59
4645,3.80,3.58
4646,3.78,3.56
4648,3.75,3.55
4649,3.73,3.54
4651,3.73,3.54
4652,3.74,3.55
4653,3.76,3.57
4654,3.79,3.58
4655,3.82,3.61
4656,3.85,3.62
4658,3.86,3.62
4659,3.86,3.62
4660,3.85,3.61
4661,3.83,3.59
4662,3.81,3.58
4663,3.79,3.57
4664,3.76,3.55
4665,3.74,3.54
4667,3.72,3.54
4668,3.73,3.55
4669,3.75,3.56
4670,3.77,3.58
4671,3.80,3.60
4672,3.83,3.62
4673,3.86,3.63
4674,3.86,3.62
4676,3.85,3.61
4677,3.84,3.60
4678,3.82,3.59
4679,3.80,3.58
4680,3.78,3.56
4681,3.75,3.55
4682,3.73,3.54
4683,3.73,3.55
4685,3.74,3.55
4686,3.76,3.57
4687,3.79,3.58
4688,3.82,3.61
4689,3.85,3.62
4690,3.86,3.62
4691,3.86,3.62
4692,3.84,3.60
4695,3.83,3.59
4696,3.81,3.59
4697,3.78,3.57
4698,3.76,3.55
4699,3.73,3.54
4700,3.72,3.54
4701,3.73,3.55
4702,3.75,3.56
4704,3.77,3.58
4705,3.81,3.60
4706,3.84,3.62
4707,3.86,3.62
4708,3.86,3.62
4709,3.85,3.61
4710,3.84,3.60
4711,3.82,3.59
4713,3.80,3.57
4714,3.77,3.56
4715,3.75,3.55
4716,3.73,3.54
4717,3.73,3.54
4718,3.74,3.55
4719,3.76,3.57
4720,3.79,3.59
4722,3.83,3.61
4723,3.85,3.62
4724,3.86,3.63
4725,3.86,3.62
4726,3.85,3.61
4727,3.83,3.60
4728,3.81,3.58
4729,3.79,3.57
4731,3.76,3.56
4732,3.74,3.54
4733,3.73,3.54
4734,3.74,3.55
4736,3.75,3.57
4737,3.78,3.58
4738,3.81,3.60
4739,3.84,3.62
4741,3.86,3.63
4742,3.86,3.62
4743,3.85,3.61
4744,3.83,3.60
4745,3.82,3.59
4746,3.79,3.57
4747,3.77,3.56
4748,3.74,3.54
4750,3.73,3.54
4751,3.73,3.55
4752,3.74,3.56
4753,3.76,3.57
4754,3.79,3.59
4755,3.83,3.62
4756,3.85,3.63
4757,3.86,3.62
4759,3.85,3.62
4760,3.84,3.60
4761,3.83,3.59
4762,3.80,3.58
4763,3.78,3.57
4764,3.76,3.55
4765,3.73,3.54
4767,3.73,3.54
4768,3.73,3.56
4769,3.75,3.57
4770,3.78,3.58
4771,3.81,3.61
4772,3.85,3.63
4773,3.86,3.63
4774,3.86,3.62
4776,3.85,3.61
4777,3.83,3.60
4779,3.81,3.59
4780,3.79,3.57
4781,3.77,3.56
4782,3.74,3.55
4783,3.73,3.55
4784,3.73,3.55
4786,3.75,3.56
4787,3.77,3.58
4788,3.80,3.60
4789,3.83,3.62
4790,3.86,3.63
4791,3.86,3.62
4792,3.85,3.61
4793,3.84,3.60
4795,3.82,3.59
4796,3.80,3.58
4797,3.78,3.56
4798,3.75,3.55
4799,3.73,3.54
4800,3.72,3.55
4801,3.74,3.55
4802,3.76,3.57
4804,3.78,3.59
4805,3.81,3.61
4806,3.85,3.62
4807,3.86,3.63
4808,3.86,3.62
4809,3.84,3.61
4810,3.83,3.60
4811,3.81,3.58
4813,3.79,3.58
4814,3.76,3.55
4815,3.74,3.54
4816,3.72,3.54
4817,3.73,3.55
4818,3.75,3.56
4819,3.77,3.58
4820,3.80,3.60
4823,3.83,3.62
4824,3.86,3.63
4825,3.86,3.62
4826,3.85,3.61
4827,3.84,3.60
4828,3.82,3.59
4829,3.80,3.58
4830,3.77,3.57
4832,3.75,3.55
4833,3.73,3.54
4834,3.73,3.55
4835,3.74,3.56
4836,3.76,3.57
4837,3.79,3.59
4838,3.82,3.61
4839,3.85,3.62
4841,3.86,3.62
4842,3.85,3.61
4843,3.84,3.61
4844,3.82,3.59
4845,3.80,3.58
4846,3.78,3.57
4847,3.76,3.55
4848,3.73,3.54
4850,3.72,3.55
4851,3.72,3.55
4852,3.74,3.56
4853,3.77,3.58
4854,3.80,3.60
4855,3.83,3.62
4856,3.85,3.62
4857,3.85,3.62
4859,3.84,3.61
4860,3.83,3.60
4861,3.81,3.59
4862,3.79,3.57
4864,3.77,3.56
4865,3.74,3.54
4866,3.72,3.54
4867,3.72,3.54
4869,3.73,3.55
4870,3.76,3.57
4871,3.79,3.59
4872,3.82,3.61
4873,3.84,3.62
4874,3.85,3.62
4875,3.85,3.61
4876,3.83,3.60
4878,3.82,3.59
4879,3.80,3.58
4880,3.77,3.56
4881,3.75,3.55
4882,3.72,3.53
4883,3.71,3.53
4884,3.72,3.54
4885,3.74,3.56
4887,3.77,3.58
4888,3.80,3.60
4889,3.83,3.61
4890,3.85,3.62
4891,3.85,3.61
4892,3.84,3.60
4893,3.82,3.59
4894,3.80,3.58
4896,3.78,3.57
4897,3.76,3.55
4898,3.73,3.54
4899,3.72,3.54
4900,3.72,3.54
4901,3.73,3.55
4902,3.75,3.57
4903,3.78,3.59
4905,3.82,3.61
4907,3.84,3.62
4908,3.85,3.62
4909,3.85,3.61
4910,3.83,3.60
4911,3.82,3.59
4912,3.80,3.58
4913,3.77,3.57
4915,3.75,3.55
4916,3.73,3.54
4917,3.72,3.54
4918,3.73,3.55
4919,3.75,3.56
4920,3.77,3.58
4921,3.81,3.60
4922,3.84,3.62
4924,3.85,3.63
4925,3.85,3.62
4926,3.84,3.61
4927,3.83,3.60
4928,3.81,3.59
4929,3.79,3.57
4930,3.77,3.56
4931,3.74,3.55
4933,3.72,3.54
4934,3.72,3.55
4935,3.74,3.56
4936,3.76,3.57
4937,3.79,3.59
4938,3.83,3.62
4939,3.85,3.62
4941,3.85,3.62
4942,3.85,3.61
4943,3.83,3.60
4944,3.82,3.59
4945,3.79,3.58
4946,3.77,3.56
4947,3.75,3.55
4948,3.73,3.54
4951,3.72,3.54
4952,3.73,3.55
4953,3.75,3.56
4954,3.78,3.58
4955,3.81,3.60
4956,3.84,3.62
4957,3.85,3.62
4958,3.85,3.62
4960,3.84,3.61
4961,3.83,3.60
4962,3.81,3.59
4963,3.79,3.57
4964,3.76,3.55
4965,3.73,3.54
4966,3.72,3.54
4967,3.73,3.55
4969,3.74,3.55
4970,3.77,3.57
4971,3.79,3.59
4972,3.83,3.62
4973,3.85,3.63
4974,3.86,3.62
4975,3.85,3.61
4976,3.84,3.60
4978,3.82,3.59
4979,3.80,3.58
4980,3.77,3.56
4981,3.75,3.55
4982,3.73,3.54
4983,3.72,3.55
4984,3.73,3.56
4985,3.76,3.57
4987,3.78,3.59
4988,3.81,3.61
4989,3.84,3.62
4990,3.85,3.62
4992,3.85,3.62
4993,3.84,3.61
4994,3.82,3.59
4995,3.80,3.58
4997,3.78,3.57
4998,3.76,3.55
4999,3.73,3.54
5000,3.72,3.54
5001,3.72,3.55
5002,3.74,3.56
5003,3.76,3.57
5004,3.79,3.60
5006,3.83,3.62
5007,3.85,3.63
5008,3.86,3.62
5009,3.85,3.61
5010,3.83,3.61
5011,3.82,3.59
5012,3.80,3.58
5013,3.77,3.57
5015,3.75,3.55
5016,3.73,3.55
5017,3.73,3.55
5018,3.74,3.55
5019,3.76,3.57
5020,3.79,3.59
5021,3.82,3.61
5022,3.85,3.63
5024,3.86,3.63
5025,3.85,3.62
5026,3.84,3.61
5027,3.83,3.60
5028,3.81,3.59
5029,3.79,3.57
5030,3.76,3.56
5031,3.74,3.54
5033,3.72,3.55
5035,3.73,3.55
5036,3.75,3.57
5037,3.77,3.58
5038,3.80,3.60
5039,3.83,3.62
5040,3.85,3.62
5041,3.85,3.62
5043,3.84,3.61
5044,3.83,3.60
5045,3.81,3.59
5046,3.79,3.57
5047,3.77,3.55
5048,3.74,3.54
5049,3.72,3.54
5051,3.72,3.55
5052,3.73,3.55
5053,3.75,3.57
5054,3.78,3.59
5055,3.81,3.61
5056,3.84,3.62
5057,3.85,3.62
5058,3.85,3.61
5060,3.83,3.60
5061,3.82,3.59
5062,3.79,3.58
5063,3.77,3.56
5064,3.75,3.55
5065,3.72,3.54
5066,3.72,3.54
5067,3.72,3.55
5069,3.74,3.56
5070,3.77,3.58
5071,3.80,3.60
5072,3.83,3.62
5073,3.85,3.62
5074,3.85,3.62
5075,3.84,3.61
5076,3.82,3.59
5079,3.80,3.58
5080,3.78,3.57
5081,3.76,3.56
5082,3.73,3.54
5083,3.72,3.54
5084,3.72,3.54
5085,3.73,3.56
5086,3.75,3.57
5088,3.79,3.59
5089,3.82,3.61
5090,3.84,3.62
5091,3.85,3.62
5092,3.84,3.61
5093,3.82,3.60
5094,3.81,3.58
5095,3.79,3.57
5097,3.76,3.56
5098,3.74,3.54
5099,3.72,3.53
5100,3.71,3.53
5101,3.72,3.55
5102,3.74,3.56
5103,3.77,3.58
5104,3.80,3.60
5106,3.83,3.62
5107,3.84,3.62
5108,3.84,3.61
5109,3.83,3.60
5110,3.82,3.59
5111,3.80,3.58
5112,3.78,3.57
5114,3.75,3.55
5115,3.73,3.54
5116,3.71,3.54
5117,3.72,3.54
5118,3.73,3.55
5120,3.76,3.57
5121,3.79,3.59
5122,3.82,3.61
5124,3.84,3.62
5125,3.85,3.62
5126,3.84,3.61
5127,3.83,3.60
5128,3.81,3.59
5129,3.79,3.57
5130,3.77,3.56
5131,3.74,3.55
5133,3.72,3.54
5134,3.72,3.54
5135,3.73,3.55
5136,3.75,3.57
5137,3.78,3.58
5138,3.81,3.61
5139,3.84,3.62
5140,3.85,3.62
5142,3.84,3.61
5143,3.83,3.60
5144,3.81,3.59
5145,3.79,3.58
5146,3.77,3.56
5147,3.75,3.55
5148,3.72,3.54
5149,3.71,3.54
5151,3.72,3.54
5152,3.73,3.55
5153,3.76,3.57
5154,3.79,3.59
5155,3.82,3.62
5156,3.84,3.62
5157,3.85,3.62
5158,3.84,3.61
5160,3.82,3.59
5161,3.81,3.59
5163,3.79,3.57
5164,3.76,3.56
5165,3.74,3.55
5166,3.72,3.54
5167,3.72,3.55
5168,3.73,3.55
5170,3.75,3.57
5171,3.78,3.59
5172,3.81,3.61
5173,3.84,3.62
5174,3.85,3.62
5175,3.85,3.61
5176,3.83,3.61
5177,3.82,3.59
5179,3.80,3.58
5180,3.78,3.57
5181,3.75,3.55
5182,3.73,3.55
5183,3.72,3.54
5184,3.72,3.55
5185,3.74,3.56
5186,3.77,3.58
5188,3.80,3.60
5189,3.83,3.62
5190,3.85,3.62
5191,3.85,3.62
5192,3.84,3.61
5193,3.82,3.59
5194,3.80,3.58
5195,3.78,3.57
5197,3.76,3.55
5198,3.73,3.54
5199,3.71,3.54
5200,3.71,3.54
5201,3.73,3.55
5202,3.75,3.57
5203,3.78,3.59
5204,3.81,3.61
5207,3.84,3.62
5208,3.85,3.62
5209,3.84,3.61
5210,3.83,3.60
5211,3.81,3.59
5212,3.79,3.58
5213,3.77,3.56
5214,3.75,3.55
5216,3.72,3.54
5217,3.71,3.54
5218,3.72,3.55
5219,3.74,3.56
5220,3.77,3.58
5221,3.80,3.60
5222,3.83,3.62
5223,3.84,3.61
5225,3.84,3.60
5226,3.84,3.59
5227,3.82,3.58
5228,3.80,3.57
5229,3.77,3.55
5230,3.75,3.54
5231,3.73,3.52
5232,3.71,3.52
5234,3.71,3.53
5235,3.73,3.54
5236,3.75,3.56
5237,3.78,3.58
5238,3.81,3.60
5239,3.84,3.61
5240,3.84,3.61
5241,3.83,3.60
5243,3.82,3.59
5244,3.80,3.58
5245,3.78,3.56
5246,3.76,3.55
5248,3.74,3.53
5249,3.71,3.53
5250,3.71,3.53
5252,3.72,3.54
5253,3.74,3.55
5254,3.76,3.57
5255,3.80,3.60
5256,3.83,3.61
5257,3.84,3.61
5258,3.84,3.61
5259,3.83,3.60
5261,3.81,3.59
5262,3.80,3.58
5263,3.77,3.56
5264,3.75,3.55
5265,3.73,3.54
5266,3.71,3.53
5267,3.72,3.54
5268,3.73,3.55
5270,3.76,3.57
5271,3.79,3.59
5272,3.82,3.61
5273,3.84,3.62
5274,3.85,3.61
5275,3.84,3.61
5276,3.83,3.60
5277,3.81,3.58
5279,3.79,3.57
5280,3.76,3.56
5281,3.74,3.54
5282,3.72,3.54
5283,3.72,3.54
5284,3.72,3.55
5285,3.75,3.56
5286,3.77,3.58
5288,3.81,3.60
5289,3.83,3.62
5291,3.84,3.62
5292,3.84,3.61
5293,3.83,3.60
5294,3.81,3.59
5295,3.79,3.57
5296,3.77,3.56
5298,3.74,3.55
5299,3.72,3.53
5300,3.71,3.53
5301,3.71,3.54
5302,3.73,3.55
5303,3.75,3.57
5304,3.79,3.59
5305,3.82,3.61
5307,3.84,3.62
5308,3.84,3.61
5309,3.83,3.60
5310,3.82,3.59
5311,3.80,3.58
5312,3.78,3.57
5313,3.76,3.55
5314,3.73,3.54
5316,3.71,3.53
5317,3.71,3.54
5318,3.72,3.55
5319,3.74,3.56
5320,3.77,3.58
5321,3.81,3.61
5322,3.83,3.62
5323,3.84,3.62
5325,3.84,3.61
5326,3.83,3.60
5327,3.81,3.59
5328,3.79,3.57
5329,3.77,3.56
5330,3.75,3.54
5331,3.72,3.53
5332,3.71,3.54
5335,3.72,3.54
5336,3.73,3.56
5337,3.76,3.57
5338,3.79,3.60
5339,3.82,3.61
5340,3.84,3.62
5341,3.84,3.61
5342,3.83,3.60
5344,3.81,3.59
5345,3.80,3.58
5346,3.77,3.57
5347,3.75,3.55
5348,3.73,3.54
5349,3.71,3.53
5350,3.71,3.54
5352,3.72,3.55
5353,3.75,3.56
5354,3.77,3.58
5355,3.81,3.61
5356,3.83,3.62
5357,3.85,3.62
5358,3.84,3.61
5359,3.83,3.60
5361,3.81,3.59
5362,3.79,3.57
5363,3.77,3.56
5364,3.75,3.55
5365,3.72,3.54
5366,3.72,3.54
5367,3.72,3.55
5368,3.74,3.56
5370,3.77,3.58
5371,3.80,3.60
5372,3.83,3.62
5373,3.85,3.62
5374,3.84,3.62
5376,3.83,3.60
5377,3.82,3.60
5378,3.80,3.58
5380,3.78,3.57
5381,3.75,3.55
5382,3.73,3.54
5383,3.71,3.54
5384,3.71,3.54
5385,3.73,3.55
5386,3.75,3.57
5387,3.78,3.59
5389,3.82,3.61
5390,3.84,3.62
5391,3.84,3.62
5392,3.83,3.61
5393,3.82,3.60
5394,3.80,3.58
5395,3.78,3.57
5396,3.76,3.56
5398,3.73,3.54
5399,3.71,3.53
5400,3.71,3.54
5401,3.72,3.55
5402,3.74,3.56
5403,3.77,3.58
5404,3.80,3.60
5405,3.83,3.62
5407,3.84,3.62
5408,3.84,3.62
5409,3.83,3.60
5410,3.81,3.59
5411,3.79,3.58
5412,3.77,3.57
5413,3.75,3.55
5414,3.73,3.54
5416,3.71,3.54
5417,3.71,3.54
5419,3.73,3.56
5420,3.76,3.57
5421,3.79,3.59
5422,3.82,3.62
5423,3.84,3.62
5424,3.84,3.62
5426,3.83,3.61
5427,3.82,3.60
5428,3.80,3.58
5429,3.78,3.57
5430,3.76,3.56
5431,3.73,3.54
5432,3.71,3.53
5433,3.71,3.54
5435,3.72,3.55
5436,3.74,3.56
5437,3.77,3.58
5438,3.80,3.61
5439,3.83,3.62
5440,3.84,3.62
5441,3.84,3.61
5442,3.83,3.60
5444,3.81,3.59
5445,3.79,3.58
5446,3.77,3.56
5447,3.74,3.55
5448,3.72,3.54
5449,3.71,3.54
5450,3.72,3.54
5452,3.73,3.55
5453,3.76,3.58
5454,3.79,3.60
5455,3.83,3.62
5456,3.86,3.64
5457,3.88,3.64
5458,3.88,3.64
5459,3.87,3.63
5462,3.85,3.62
5463,3.83,3.61
5464,3.81,3.59
5465,3.79,3.58
5466,3.78,3.58
5467,3.78,3.58
5468,3.80,3.59
5469,3.82,3.61
5471,3.85,3.63
5472,3.89,3.65
5473,3.92,3.67
5474,3.95,3.69
5475,3.96,3.69
5476,3.96,3.69
5477,3.97,3.70
5478,4.00,3.72
5480,4.03,3.74
5481,4.06,3.76
5482,4.09,3.78
5483,4.13,3.81
5484,4.16,3.83
5485,4.19,3.84
5486,4.22,3.86
5487,4.25,3.87
5489,4.28,3.89
5490,4.30,3.90
5491,4.33,3.91
5492,4.35,3.92
5493,4.37,3.94
5494,4.39,3.95
5495,4.42,3.96
5496,4.43,3.97
5498,4.45,3.98
5499,4.47,3.99
5500,4.48,4.00
5501,4.50,4.01
5502,4.51,4.02
5504,4.52,4.03
5505,4.53,4.03
5506,4.54,4.04
5508,4.55,4.05
5509,4.56,4.05
5510,4.57,4.05
5511,4.57,4.06
5512,4.57,4.06
5513,4.57,4.07
5514,4.58,4.07
5515,4.58,4.07
5517,4.58,4.07
5518,4.58,4.07
5519,4.58,4.07
5520,4.58,4.07
5521,4.58,4.07
5522,4.58,4.07
5523,4.58,4.07
5524,4.58,4.07
5526,4.58,4.07
5527,4.57,4.07
5528,4.57,4.07
5529,4.57,4.07
5530,4.57,4.07
5531,4.57,4.07
5532,4.57,4.07
5533,4.56,4.07
5535,4.56,4.06
5536,4.56,4.06
5537,4.56,4.06
5538,4.55,4.06
5539,4.55,4.06
5540,4.55,4.06
5541,4.55,4.06
5542,4.54,4.06
5544,4.54,4.06
5545,4.54,4.06
5547,4.54,4.06
5548,4.53,4.05
5549,4.53,4.05
5550,4.53,4.05
5551,4.53,4.05
5552,4.53,4.05
5554,4.53,4.05
5555,4.52,4.05
5556,4.52,4.05
5557,4.52,4.05
5558,4.52,4.05
5559,4.52,4.05
5560,4.52,4.05
5561,4.52,4.05
5563,4.52,4.05
5564,4.52,4.05
5565,4.51,4.05
5566,4.51,4.05
5567,4.51,4.05
5568,4.51,4.05
5569,4.51,4.05
5570,4.52,4.05
5572,4.51,4.05
5573,4.51,4.05
5574,4.51,4.05
5575,4.51,4.05
5576,4.51,4.05
5577,4.51,4.05
5578,4.51,4.05
5579,4.51,4.05
5581,4.51,4.05
5582,4.51,4.05
5583,4.51,4.06
5584,4.51,4.06
5585,4.51,4.06
5586,4.51,4.06
5587,4.51,4.06
5588,4.51,4.06
5591,4.51,4.06
5592,4.51,4.06
5593,4.51,4.06
5594,4.51,4.06
5595,4.51,4.06
5596,4.51,4.06
5597,4.51,4.06
5599,4.52,4.06
5600,4.52,4.06
5601,4.52,4.06
5602,4.51,4.06
5603,4.52,4.06
5604,4.52,4.06
5605,4.52,4.06
5606,4.52,4.06
5608,4.52,4.06
5609,4.52,4.06
5610,4.51,4.06
5611,4.52,4.06
5612,4.52,4.06
5613,4.52,4.06
5614,4.52,4.06
5615,4.52,4.06
5617,4.52,4.06
5618,4.52,4.06
5619,4.52,4.06
5620,4.52,4.06
5621,4.52,4.06
5622,4.52,4.06
5623,4.52,4.06
5624,4.52,4.06
5626,4.52,4.06
5627,4.52,4.06
5628,4.52,4.06
5629,4.52,4.06
5630,4.52,4.06
5632,4.52,4.06
5633,4.52,4.06
5634,4.52,4.06
5636,4.52,4.06
5637,4.51,4.06
5638,4.51,4.06
5639,4.51,4.06
5640,4.51,4.06
5641,4.51,4.06
5642,4.51,4.06
5643,4.51,4.06
5645,4.51,4.06
5646,4.51,4.06
5647,4.51,4.06
5648,4.51,4.06
5649,4.51,4.06
5650,4.51,4.06
5651,4.51,4.06
5652,4.51,4.06
5654,4.51,4.06
5655,4.51,4.06
5656,4.51,4.06
5657,4.51,4.06
5658,4.51,4.06
5659,4.51,4.06
5660,4.51,4.06
5661,4.51,4.06
5663,4.51,4.06
5664,4.51,4.06
5665,4.51,4.06
5666,4.51,4.06
5667,4.51,4.06
5668,4.52,4.06
5669,4.51,4.06
5670,4.52,4.06
5672,4.52,4.06
5673,4.51,4.06
5675,4.52,4.06
5676,4.51,4.06
5677,4.51,4.06
5678,4.51,4.06
5679,4.51,4.06
5680,4.52,4.06
5682,4.52,4.06
5683,4.52,4.06
5684,4.52,4.06
5685,4.52,4.07
5686,4.52,4.07
5687,4.52,4.07
5688,4.52,4.07
5689,4.52,4.07
5691,4.52,4.07
5692,4.52,4.07
5693,4.52,4.07
5694,4.52,4.07
5695,4.52,4.07
5696,4.52,4.07
5697,4.52,4.07
5698,4.52,4.07
5700,4.52,4.07
5701,4.52,4.07
5702,4.52,4.07
5703,4.52,4.07
5704,4.52,4.07
5705,4.52,4.07
5706,4.52,4.07
5708,4.52,4.07
5709,4.52,4.07
5710,4.52,4.07
5711,4.52,4.07
5712,4.52,4.07
5713,4.52,4.07
5714,4.51,4.07
5715,4.52,4.07
5718,4.52,4.07
5719,4.52,4.07
5720,4.52,4.07
5721,4.52,4.07
5722,4.52,4.08
5723,4.52,4.08
5724,4.51,4.08
5725,4.51,4.07
5727,4.52,4.07
5728,4.52,4.07
5729,4.52,4.07
5730,4.52,4.07
5731,4.52,4.08
5732,4.51,4.07
5733,4.52,4.08
5734,4.51,4.08
5736,4.52,4.07
5737,4.51,4.07
5738,4.52,4.08
5739,4.51,4.08
5740,4.52,4.07
5741,4.52,4.08
5742,4.52,4.08
5743,4.52,4.07
5745,4.52,4.08
5746,4.52,4.08
5747,4.51,4.08
5748,4.52,4.08
5749,4.52,4.08
5750,4.52,4.08
5751,4.51,4.08
5753,4.52,4.08
5754,4.52,4.08
5755,4.52,4.08
5756,4.52,4.08
5757,4.52,4.08
5758,4.52,4.08
5760,4.52,4.08
5761,4.52,4.08
5763,4.52,4.08
5764,4.52,4.08
5765,4.52,4.08
5766,4.52,4.08
5767,4.52,4.08
5768,4.52,4.08
5769,4.52,4.09
5770,4.51,4.09
5772,4.52,4.09
5773,4.51,4.08
5774,4.52,4.08
5775,4.52,4.09
5776,4.52,4.09
5777,4.52,4.09
5778,4.52,4.09
5779,4.52,4.09
5781,4.52,4.09
5782,4.51,4.09
5783,4.52,4.09
5784,4.52,4.09
5785,4.52,4.09
5786,4.52,4.09
5787,4.52,4.09
5788,4.52,4.09
5790,4.52,4.09
5791,4.52,4.09
5792,4.52,4.09
5793,4.52,4.10
5794,4.52,4.10
5795,4.51,4.09
5796,4.52,4.10
5797,4.52,4.10
5799,4.52,4.10
5800,4.52,4.10
5801,4.52,4.10
5803,4.52,4.10
5804,4.52,4.10
5805,4.52,4.10
5806,4.52,4.10
5807,4.52,4.10
5809,4.52,4.10
5810,4.52,4.10
5811,4.52,4.10
5812,4.51,4.10
5813,4.51,4.10
5814,4.52,4.10
5815,4.52,4.10
5816,4.52,4.10
5818,4.52,4.10
5819,4.51,4.10
5820,4.52,4.10
5821,4.51,4.10
5822,4.52,4.10
5823,4.52,4.10
5824,4.52,4.10
5825,4.52,4.10
5827,4.52,4.10
5828,4.52,4.10
5829,4.52,4.10
5830,4.52,4.10
5831,4.52,4.10
5832,4.52,4.10
5833,4.52,4.10
5834,4.52,4.10
5836,4.52,4.10
5837,4.51,4.10
5838,4.52,4.10
5839,4.52,4.10
5840,4.52,4.10
5841,4.51,4.10
5842,4.52,4.11
5843,4.52,4.10
5846,4.52,4.11
5847,4.52,4.10
5848,4.52,4.10
5849,4.52,4.10
5850,4.52,4.11
5851,4.52,4.11
5852,4.52,4.11
5853,4.52,4.11
5855,4.52,4.11
5856,4.52,4.10
5857,4.52,4.11
5858,4.52,4.11
5859,4.52,4.11
5860,4.52,4.11
5861,4.52,4.11
5863,4.52,4.11
5864,4.51,4.11
5865,4.52,4.11
5866,4.52,4.11
5867,4.52,4.11
5868,4.52,4.11
5869,4.52,4.11
5871,4.52,4.11
5872,4.52,4.12
5873,4.52,4.12
5874,4.52,4.12
5875,4.52,4.12
5876,4.52,4.11
5877,4.52,4.12
5879,4.52,4.11
5880,4.52,4.12
5881,4.51,4.11
5882,4.52,4.12
5883,4.52,4.11
5884,4.52,4.11
5885,4.52,4.11
5886,4.52,4.12
5889,4.52,4.12
5890,4.51,4.11
5891,4.52,4.11
5892,4.51,4.11
5893,4.52,4.11
5894,4.52,4.11
5895,4.52,4.11
5897,4.52,4.11
5898,4.52,4.11
5899,4.51,4.11
5900,4.51,4.11
5901,4.52,4.11
5902,4.52,4.11
5903,4.52,4.11
5904,4.52,4.11
5906,4.52,4.11
5907,4.52,4.11
5908,4.51,4.11
5909,4.51,4.11
5910,4.52,4.11
5911,4.52,4.11
5912,4.51,4.11
5914,4.51,4.11
5915,4.52,4.11
5916,4.52,4.11
5917,4.52,4.11
5918,4.52,4.11
5919,4.51,4.11
5920,4.51,4.11
5921,4.51,4.11
5923,4.51,4.11
5924,4.51,4.11
5925,4.51,4.11
5926,4.52,4.10
5927,4.52,4.10
5928,4.52,4.10
5929,4.52,4.10
5932,4.52,4.10
5933,4.52,4.10
5934,4.52,4.10
5935,4.52,4.10
5936,4.51,4.10
5937,4.52,4.10
5938,4.52,4.10
5939,4.52,4.10
5941,4.52,4.10
5942,4.52,4.10
5943,4.52,4.09
5944,4.52,4.09
5945,4.52,4.09
5946,4.52,4.09
5947,4.52,4.09
5948,4.52,4.09
5950,4.52,4.09
5951,4.51,4.09
5952,4.52,4.09
5953,4.52,4.09
5954,4.51,4.09
5955,4.51,4.08
5956,4.51,4.08
5957,4.51,4.08
5959,4.52,4.08
5960,4.51,4.08
5961,4.51,4.08
5962,4.51,4.08
5963,4.51,4.08
5964,4.51,4.08
5965,4.51,4.08
5966,4.51,4.08
5968,4.51,4.08
5969,4.51,4.08
5970,4.51,4.08
5971,4.51,4.08
5972,4.51,4.08
5974,4.51,4.08
5975,4.51,4.08
5976,4.51,4.08
5978,4.51,4.08
5979,4.51,4.07
5980,4.51,4.07
5981,4.51,4.07
5982,4.51,4.07
5983,4.51,4.07
5984,4.51,4.07
5986,4.51,4.07
5987,4.51,4.07
5988,4.51,4.07
5989,4.51,4.07
5990,4.51,4.07
5991,4.51,4.07
5992,4.51,4.07
5993,4.51,4.07
5995,4.51,4.07
5996,4.51,4.07
5997,4.51,4.07
5998,4.51,4.06
5999,4.51,4.06
6000,4.51,4.06
6001,4.51,4.06
6002,4.51,4.06
6004,4.51,4.06
6005,4.51,4.06
6006,4.51,4.06
6007,4.51,4.06
6008,4.51,4.06
6009,4.51,4.06
6010,4.51,4.06
6011,4.51,4.06
6013,4.51,4.06
6014,4.51,4.06
6016,4.51,4.06
6017,4.51,4.06
6018,4.51,4.06
6019,4.51,4.06
6020,4.51,4.06
6022,4.51,4.06
6023,4.51,4.05
6024,4.51,4.05
6025,4.51,4.05
6026,4.51,4.05
6027,4.51,4.05
6028,4.51,4.05
6029,4.51,4.05
6031,4.51,4.04
6032,4.51,4.05
6033,4.51,4.04
6034,4.51,4.04
6035,4.51,4.04
6036,4.51,4.04
6037,4.51,4.04
6038,4.51,4.04
6040,4.51,4.03
6041,4.51,4.03
6042,4.51,4.03
6043,4.51,4.03
6044,4.51,4.03
6045,4.51,4.02
6046,4.51,4.02
6047,4.51,4.02
6049,4.51,4.02
6050,4.51,4.02
6051,4.51,4.02
6052,4.51,4.01
6053,4.51,4.01
6054,4.51,4.01
6055,4.51,4.01
6056,4.51,4.01
6059,4.51,4.01
6060,4.51,4.01
6061,4.51,4.00
6062,4.51,4.00
6063,4.51,4.00
6064,4.51,4.00
6065,4.51,3.99
6066,4.51,3.99
6068,4.51,3.99
6069,4.51,3.99
6070,4.51,3.99
6071,4.51,3.98
6072,4.51,3.98
6073,4.51,3.98
6074,4.51,3.98
6075,4.51,3.97
6077,4.51,3.97
6078,4.51,3.97
6079,4.51,3.97
6080,4.51,3.97
6081,4.51,3.96
6082,4.51,3.96
6083,4.51,3.96
6084,4.51,3.96
6086,4.51,3.95
6087,4.51,3.95
6088,4.51,3.95
6089,4.51,3.95
6090,4.51,3.94
6091,4.51,3.94
6092,4.51,3.94
6093,4.51,3.94
6095,4.51,3.94
6096,4.51,3.93
6097,4.51,3.93
6098,4.51,3.93
6099,4.51,3.92
6100,4.51,3.92
6102,4.51,3.92
6103,4.51,3.92
6105,4.51,3.91
6106,4.51,3.91
6107,4.51,3.91
6108,4.51,3.91
6109,4.51,3.91
6110,4.51,3.91
6111,4.51,3.91
6113,4.51,3.90
6114,4.51,3.90
6115,4.51,3.90
6116,4.51,3.90
6117,4.51,3.89
6118,4.51,3.89
6119,4.51,3.89
6120,4.51,3.89
6122,4.51,3.89
6123,4.51,3.89
6124,4.51,3.88
6125,4.50,3.88
6126,4.51,3.88
6127,4.51,3.88
6128,4.50,3.88
6129,4.51,3.87
6131,4.50,3.87
6132,4.51,3.87
6133,4.51,3.87
6134,4.51,3.87
6135,4.51,3.87
6136,4.51,3.87
6137,4.50,3.86
6139,4.51,3.86
6140,4.50,3.86
6141,4.51,3.86
6142,4.50,3.86
6144,4.50,3.85
6145,4.51,3.85
6146,4.51,3.85
6147,4.51,3.85
6149,4.51,3.85
6150,4.51,3.85
6151,4.51,3.85
6152,4.51,3.85
6153,4.50,3.85
6154,4.51,3.84
6155,4.51,3.84
6157,4.51,3.84
6158,4.51,3.84
6159,4.51,3.84
6160,4.51,3.84
6161,4.51,3.84
6162,4.51,3.84
6163,4.51,3.83
6164,4.51,3.83
6166,4.51,3.83
6167,4.51,3.83
6168,4.51,3.83
6169,4.51,3.83
6170,4.51,3.83
6171,4.51,3.83
6172,4.51,3.83
6173,4.51,3.83
6175,4.51,3.83
6176,4.51,3.83
6177,4.51,3.83
6178,4.51,3.83
6179,4.51,3.83
6180,4.51,3.83
6181,4.51,3.83
6183,4.51,3.83
6184,4.51,3.83
6185,4.51,3.83
6187,4.51,3.83
6188,4.51,3.83
6189,4.51,3.83
6190,4.51,3.83
6192,4.51,3.83
6193,4.51,3.83
6194,4.51,3.83
6195,4.50,3.83
6196,4.51,3.83
6197,4.51,3.83
6198,4.51,3.83
6199,4.51,3.83
6201,4.51,3.83
6202,4.51,3.83
6203,4.51,3.83
6204,4.51,3.83
6205,4.51,3.83
6206,4.51,3.83
6207,4.51,3.83
6209,4.51,3.83
6210,4.51,3.83
6211,4.51,3.83
6212,4.51,3.83
6213,4.51,3.83
6214,4.51,3.83
6215,4.51,3.83
6217,4.51,3.83
6218,4.51,3.83
6219,4.51,3.83
6220,4.51,3.83
6221,4.51,3.83
6222,4.51,3.83
6223,4.51,3.83
6224,4.51,3.83
6226,4.51,3.83
6227,4.51,3.83
6228,4.51,3.83
6230,4.51,3.83
6231,4.51,3.83
6232,4.51,3.83
6233,4.51,3.83
6235,4.51,3.83
6236,4.51,3.84
6237,4.51,3.84
6238,4.51,3.84
6239,4.51,3.84
6240,4.51,3.84
6241,4.51,3.84
6243,4.51,3.84
6244,4.51,3.84
6245,4.51,3.84
6246,4.51,3.84
6247,4.51,3.84
6248,4.51,3.84
6249,4.51,3.84
6251,4.51,3.84
6252,4.51,3.84
6253,4.51,3.84
6254,4.51,3.84
6255,4.51,3.84
6256,4.51,3.84
6257,4.51,3.84
6258,4.51,3.84
6260,4.51,3.84
6261,4.51,3.84
6262,4.51,3.84
6263,4.51,3.84
6264,4.51,3.84
6265,4.51,3.84
6266,4.51,3.84
6267,4.51,3.84
6269,4.51,3.84
6270,4.51,3.84
6272,4.51,3.84
6273,4.51,3.84
6274,4.51,3.84
6275,4.51,3.84
6276,4.51,3.84
6277,4.51,3.84
6279,4.51,3.84
6280,4.51,3.84
6281,4.51,3.84
6282,4.51,3.84
6283,4.51,3.84
6284,4.51,3.84
6285,4.51,3.84
6286,4.51,3.84
6288,4.51,3.85
6289,4.51,3.84
6290,4.51,3.85
6291,4.51,3.84
6292,4.51,3.85
6293,4.51,3.85
6294,4.51,3.85
6296,4.51,3.85
6297,4.51,3.85
6298,4.51,3.85
6299,4.51,3.85
6300,4.51,3.85
6301,4.51,3.85
6302,4.51,3.85
6304,4.51,3.85
6305,4.51,3.85
6306,4.51,3.85
6307,4.51,3.85
6308,4.50,3.85
6309,4.51,3.85
6310,4.51,3.85
6312,4.51,3.85
6313,4.50,3.85
6315,4.50,3.85
6316,4.50,3.85
6317,4.50,3.85
6318,4.51,3.85
6319,4.50,3.85
6320,4.50,3.85
6322,4.50,3.85
6323,4.50,3.85
6324,4.51,3.85
6325,4.50,3.85
6326,4.50,3.85
6327,4.50,3.85
6328,4.50,3.85
6330,4.50,3.85
6331,4.50,3.85
6332,4.51,3.85
6333,4.50,3.85
6334,4.50,3.85
6335,4.50,3.85
6336,4.50,3.85
6337,4.50,3.85
6339,4.50,3.85
6340,4.50,3.85
6341,4.50,3.85
6342,4.50,3.85
6343,4.50,3.85
6344,4.50,3.85
6345,4.50,3.85
6347,4.50,3.85
6348,4.50,3.85
6349,4.50,3.85
6350,4.50,3.85
6351,4.50,3.85
6352,4.50,3.85
6353,4.50,3.85
6354,4.51,3.86
6356,4.50,3.86
6358,4.50,3.86
6359,4.50,3.86
6360,4.50,3.86
6361,4.50,3.86
6362,4.50,3.86
6363,4.50,3.87
6364,4.50,3.87
6366,4.50,3.87
6367,4.50,3.87
6368,4.51,3.87
6369,4.50,3.87
6370,4.50,3.87
6371,4.50,3.87
6372,4.50,3.87
6373,4.50,3.88
6375,4.50,3.88
6376,4.50,3.88
6377,4.50,3.88
6378,4.50,3.88
6379,4.50,3.88
6380,4.50,3.88
6381,4.50,3.89
6382,4.50,3.89
6384,4.50,3.89
6385,4.50,3.89
6386,4.50,3.89
6387,4.50,3.89
6388,4.50,3.89
6389,4.50,3.89
6390,4.50,3.89
6391,4.50,3.90
6393,4.50,3.90
6394,4.50,3.90
6395,4.50,3.90
6396,4.50,3.90
6397,4.50,3.90
6398,4.50,3.90
6400,4.50,3.90
6401,4.50,3.90
6402,4.50,3.90
6404,4.50,3.90
6405,4.50,3.90
6406,4.50,3.91
6407,4.50,3.91
6408,4.50,3.91
6409,4.50,3.91
6410,4.50,3.91
6411,4.50,3.91
6413,4.50,3.91
6414,4.50,3.91
6415,4.50,3.91
6416,4.50,3.91
6417,4.50,3.91
6418,4.50,3.91
6419,4.50,3.91
6421,4.50,3.91
6422,4.50,3.91
6423,4.50,3.91
6424,4.50,3.91
6425,4.50,3.91
6426,4.50,3.91
6427,4.50,3.91
6428,4.50,3.91
6430,4.50,3.91
6431,4.50,3.91
6432,4.50,3.91
6433,4.50,3.91
6434,4.50,3.91
6435,4.50,3.91
6436,4.50,3.92
6437,4.50,3.92
6439,4.50,3.92
6440,4.50,3.92
6441,4.50,3.92
6443,4.50,3.92
6444,4.50,3.92
6445,4.50,3.92
6446,4.50,3.92
6447,4.50,3.92
6449,4.50,3.92
6450,4.50,3.92
6451,4.50,3.92
6452,4.50,3.92
6453,4.50,3.92
6454,4.50,3.92
6455,4.50,3.92
6456,4.50,3.92
6458,4.50,3.93
6459,4.50,3.93
6460,4.50,3.93
6461,4.50,3.93
6462,4.50,3.93
6463,4.50,3.93
6464,4.50,3.93
6465,4.50,3.93
6467,4.50,3.93
6468,4.50,3.93
6469,4.50,3.93
6470,4.50,3.93
6471,4.50,3.93
6472,4.50,3.93
6473,4.50,3.94
6474,4.50,3.94
6475,4.50,3.94
6477,4.50,3.94
6478,4.50,3.94
6479,4.50,3.94
6480,4.50,3.94
6481,4.50,3.94
6482,4.50,3.94
6483,4.50,3.94
6484,4.50,3.94
6487,4.50,3.94
6488,4.50,3.95
6489,4.50,3.95
6490,4.50,3.95
6491,4.50,3.95
6492,4.50,3.95
6493,4.50,3.95
6494,4.50,3.95
6496,4.50,3.95
6497,4.50,3.95
6498,4.50,3.95
6499,4.50,3.95
6500,4.50,3.95
6501,4.50,3.95
6502,4.50,3.96
6503,4.50,3.96
6504,4.50,3.96
6506,4.50,3.96
6507,4.50,3.96
6508,4.50,3.96
6509,4.50,3.96
6510,4.50,3.96
6511,4.50,3.96
6512,4.50,3.96
6513,4.50,3.96
6515,4.50,3.97
6516,4.50,3.97
6517,4.50,3.97
6518,4.50,3.97
6519,4.50,3.97
6520,4.50,3.97
6521,4.50,3.97
6522,4.50,3.97
6524,4.50,3.97
6525,4.50,3.97
6526,4.50,3.97
6528,4.50,3.97
6529,4.50,3.97
6530,4.50,3.97
6531,4.50,3.97
6532,4.50,3.97
6534,4.50,3.97
6535,4.50,3.97
6536,4.50,3.97
6537,4.50,3.97
6538,4.50,3.97
6539,4.50,3.97
6540,4.50,3.97
6541,4.50,3.97
6543,4.50,3.97
6544,4.50,3.97
6545,4.50,3.97
6546,4.50,3.97
6547,4.50,3.96
6548,4.50,3.96
6549,4.50,3.96
6550,4.50,3.97
6552,4.50,3.96
6553,4.50,3.96
6554,4.50,3.96
6555,4.50,3.96
6556,4.50,3.96
6557,4.50,3.96
6558,4.50,3.96
6559,4.50,3.96
6561,4.50,3.96
6562,4.50,3.96
6563,4.50,3.96
6564,4.50,3.96
6565,4.50,3.96
6566,4.50,3.96
6567,4.50,3.96
6568,4.50,3.96
6571,4.50,3.96
6572,4.50,3.96
6573,4.50,3.96
6574,4.50,3.96
6575,4.50,3.96
6576,4.50,3.96
6577,4.50,3.96
6578,4.50,3.96
6579,4.50,3.96
6581,4.50,3.96
6582,4.50,3.96
6583,4.50,3.96
6584,4.50,3.96
6585,4.50,3.96
6586,4.50,3.96
6587,4.50,3.96
6588,4.50,3.96
6590,4.50,3.96
6591,4.50,3.96
6592,4.50,3.96
6593,4.50,3.96
6594,4.50,3.96
6595,4.50,3.96
6596,4.50,3.96
6597,4.50,3.96
6599,4.50,3.96
6600,4.50,3.96
6601,4.50,3.96
6602,4.50,3.96
6603,4.50,3.96
6604,4.50,3.96
6605,4.50,3.96
6606,4.50,3.96
6608,4.50,3.96
6609,4.50,3.96
6610,4.50,3.96
6611,4.50,3.96
6612,4.50,3.96
6614,4.50,3.95
6615,4.50,3.95
6616,4.50,3.95
6618,4.50,3.95
6619,4.50,3.95
6620,4.50,3.95
6621,4.50,3.95
6622,4.50,3.95
6623,4.50,3.95
6624,4.50,3.95
6625,4.50,3.95
6627,4.50,3.95
6628,4.50,3.95
6629,4.50,3.95
6630,4.50,3.95
6631,4.50,3.95
6632,4.50,3.94
6633,4.50,3.94
6634,4.50,3.94
6636,4.50,3.94
6637,4.50,3.94
6638,4.50,3.94
6639,4.50,3.94
6640,4.50,3.94
6641,4.50,3.94
6642,4.50,3.94
6643,4.50,3.94
6645,4.50,3.94
6646,4.50,3.94
6647,4.50,3.94
6648,4.50,3.94
6649,4.50,3.94
6650,4.50,3.94
6651,4.50,3.94
6652,4.50,3.94
6654,4.50,3.93
6656,4.50,3.93
6657,4.50,3.93
6658,4.50,3.93
6659,4.50,3.93
6660,4.50,3.93
6661,4.50,3.93
6662,4.50,3.93
6664,4.50,3.93
6665,4.50,3.93
6666,4.50,3.93
6667,4.50,3.93
6668,4.50,3.93
6669,4.50,3.93
6670,4.50,3.93
6671,4.50,3.93
6673,4.50,3.93
6674,4.50,3.93
6675,4.50,3.93
6676,4.50,3.93
6677,4.50,3.93
6678,4.50,3.93
6679,4.50,3.93
6680,4.50,3.93
6682,4.50,3.93
6683,4.50,3.93
6684,4.50,3.93
6685,4.50,3.93
6686,4.50,3.93
6687,4.50,3.93
6688,4.50,3.94
6689,4.50,3.94
6691,4.50,3.94
6692,4.50,3.93
6693,4.50,3.94
6694,4.50,3.94
6695,4.50,3.94
6696,4.50,3.94
6697,4.50,3.94
6699,4.50,3.94
6701,4.50,3.94
6702,4.50,3.94
6703,4.50,3.94
6704,4.50,3.94
6705,4.50,3.94
6706,4.50,3.94
6707,4.50,3.94
6708,4.50,3.94
6710,4.50,3.94
6711,4.50,3.94
6712,4.50,3.94
6713,4.50,3.94
6714,4.50,3.94
6715,4.50,3.94
6716,4.50,3.94
6717,4.50,3.94
6719,4.50,3.94
6720,4.50,3.94
6721,4.50,3.94
6722,4.50,3.94
6723,4.50,3.94
6724,4.50,3.94
6725,4.50,3.94
6726,4.50,3.94
6728,4.50,3.94
6729,4.50,3.94
6730,4.50,3.94
6731,4.50,3.94
6732,4.50,3.94
6733,4.50,3.94
6734,4.50,3.94
6735,4.50,3.94
6737,4.50,3.94
6738,4.50,3.94
6739,4.50,3.94
6740,4.50,3.94
6742,4.50,3.94
6743,4.50,3.94
6744,4.50,3.94
6745,4.50,3.94
6747,4.50,3.94
6748,4.50,3.94
6749,4.50,3.94
6750,4.50,3.94
6751,4.50,3.94
6752,4.50,3.94
6753,4.50,3.94
6754,4.50,3.94
6756,4.50,3.94
6757,4.50,3.94
6758,4.50,3.94
6759,4.50,3.94
6760,4.50,3.94
6761,4.50,3.94
6762,4.50,3.95
6763,4.50,3.94
6765,4.50,3.95
6766,4.50,3.95
6767,4.50,3.95
6768,4.50,3.95
6769,4.50,3.95
6770,4.50,3.95
6771,4.50,3.95
6772,4.50,3.95
6774,4.50,3.95
6775,4.50,3.95
6776,4.50,3.95
6777,4.50,3.95
6778,4.50,3.95
6779,4.50,3.95
6780,4.50,3.95
6781,4.50,3.95
6784,4.50,3.95
6785,4.50,3.95
6786,4.50,3.95
6787,4.50,3.95
6788,4.50,3.95
6789,4.50,3.95
6790,4.50,3.95
6791,4.50,3.95
6793,4.50,3.96
6794,4.50,3.96
6795,4.50,3.96
6796,4.50,3.96
6797,4.50,3.96
6798,4.50,3.96
6799,4.50,3.96
6800,4.50,3.96
6802,4.50,3.96
6803,4.50,3.96
6804,4.50,3.96
6805,4.50,3.96
6806,4.50,3.96
6807,4.50,3.96
6808,4.50,3.96
6809,4.50,3.96
6811,4.50,3.96
6812,4.50,3.96
6813,4.50,3.96
6814,4.50,3.96
6815,4.50,3.97
6816,4.50,3.97
6817,4.50,3.97
6818,4.50,3.97
6820,4.50,3.97
6821,4.50,3.97
6822,4.50,3.97
6823,4.50,3.97
6824,4.50,3.97
6825,4.50,3.97
6827,4.50,3.97
6828,4.50,3.97
6830,4.50,3.97
6831,4.50,3.97
6832,4.50,3.97
6833,4.50,3.97
6834,4.50,3.97
6835,4.50,3.97
6836,4.50,3.97
6837,4.50,3.97
6839,4.50,3.97
6840,4.50,3.97
6841,4.50,3.98
6842,4.50,3.98
6843,4.50,3.97
6844,4.50,3.98
6845,4.50,3.98
6846,4.50,3.98
6848,4.50,3.98
6849,4.50,3.98
6850,4.50,3.98
6851,4.50,3.98
6852,4.50,3.98
6853,4.50,3.98
6854,4.50,3.98
6855,4.50,3.98
6857,4.50,3.98
6858,4.50,3.98
6859,4.50,3.98
6860,4.50,3.98
6861,4.50,3.98
6862,4.50,3.98
6863,4.50,3.98
6864,4.50,3.98
6866,4.50,3.98
6867,4.50,3.98
6868,4.50,3.98
6870,4.50,3.98
6871,4.50,3.98
6872,4.50,3.99
6873,4.50,3.99
6874,4.50,3.99
6876,4.50,3.99
6877,4.50,3.99
6878,4.50,3.99
6879,4.50,3.99
6880,4.50,3.99
6881,4.50,3.99
6882,4.50,3.99
6883,4.50,3.99
6885,4.50,3.99
6886,4.50,3.99
6887,4.50,3.99
6888,4.50,3.99
6889,4.50,3.99
6890,4.50,3.99
6891,4.50,3.99
6892,4.50,3.99
6894,4.50,3.99
6895,4.50,3.99
6896,4.50,3.99
6897,4.50,3.99
6898,4.50,3.99
6899,4.50,3.99
6900,4.50,3.99
6901,4.50,3.99
6902,4.50,3.99
6904,4.50,3.99
6905,4.50,3.99
6906,4.50,4.00
6907,4.50,4.00
6908,4.50,4.00
6909,4.50,4.00
6910,4.50,4.00
6912,4.50,3.99
6914,4.50,4.00
6915,4.50,4.00
6916,4.50,4.00
6917,4.50,4.00
6918,4.50,4.00
6919,4.50,4.00
6920,4.50,4.00
6921,4.50,4.00
6922,4.50,4.00
6924,4.50,4.00
6925,4.50,4.00
6926,4.50,4.00
6927,4.50,4.00
6928,4.50,4.00
6929,4.50,4.00
6930,4.50,4.00
6931,4.50,4.00
6932,4.50,4.00
6934,4.50,4.00
6935,4.50,4.00
6936,4.50,4.00
6937,4.50,4.00
6938,4.50,4.00
6939,4.50,4.00
6940,4.49,4.00
6941,4.50,4.00
6942,4.49,4.00
6944,4.49,4.00
6945,4.49,4.00
6946,4.49,4.01
6947,4.49,4.00
6948,4.49,4.00
6949,4.49,4.00
6950,4.49,4.00
6951,4.49,4.00
6953,4.49,4.01
6955,4.50,4.01
6956,4.50,4.02
6957,4.49,4.01
6958,4.47,3.99
6959,4.43,3.97
6960,4.38,3.94
6961,4.34,3.91
6963,4.28,3.88
6964,4.22,3.84
6965,4.17,3.82
6966,4.13,3.80
6967,4.11,3.79
6968,4.10,3.78
6969,4.09,3.78
6970,4.10,3.78
6972,4.10,3.79
6973,4.11,3.79
6974,4.10,3.78
6975,4.07,3.76
6976,4.04,3.73
6977,4.00,3.71
6978,3.96,3.69
6979,3.92,3.66
6981,3.88,3.64
6982,3.85,3.63
6983,3.84,3.63
6984,3.85,3.64
6985,3.86,3.65
6986,3.87,3.66
6987,3.89,3.67
6988,3.91,3.68
6990,3.92,3.68
6991,3.92,3.67
6992,3.91,3.66
6993,3.88,3.64
6994,3.86,3.62
6995,3.83,3.60
6996,3.80,3.58
6998,3.77,3.58
7000,3.77,3.58
7001,3.77,3.59
7002,3.79,3.60
7003,3.82,3.61
7004,3.84,3.63
7005,3.87,3.65
7006,3.90,3.66
7008,3.91,3.66
7009,3.90,3.65
7010,3.88,3.64
7011,3.86,3.62
7012,3.84,3.60
7013,3.81,3.59
7014,3.79,3.58
7015,3.77,3.57
7017,3.78,3.58
7018,3.80,3.60
7019,3.82,3.61
7020,3.84,3.63
7021,3.88,3.65
7022,3.91,3.67
7023,3.91,3.67
7024,3.91,3.66
7026,3.90,3.65
7027,3.88,3.63
7028,3.86,3.62
7029,3.84,3.60
7030,3.81,3.59
7031,3.79,3.59
7032,3.79,3.59
7033,3.80,3.59
7035,3.82,3.61
7036,3.84,3.62
7037,3.87,3.64
7038,3.90,3.67
7040,3.92,3.67
7041,3.92,3.66
7042,3.91,3.65
7044,3.89,3.64
7045,3.87,3.63
7046,3.85,3.61
7047,3.82,3.60
7048,3.80,3.59
7049,3.79,3.59
7050,3.79,3.59
7051,3.81,3.60
7053,3.83,3.61
7054,3.86,3.63
7055,3.89,3.66
7056,3.91,3.67
7057,3.91,3.66
7058,3.91,3.65
7059,3.90,3.64
7060,3.88,3.63
7062,3.85,3.62
7063,3.83,3.60
7064,3.80,3.58
7065,3.78,3.58
7066,3.78,3.59
7067,3.79,3.59
7068,3.81,3.60
7069,3.84,3.62
7071,3.87,3.65
7072,3.90,3.66
7073,3.91,3.67
7074,3.91,3.66
7075,3.90,3.65
7076,3.88,3.64
7077,3.86,3.62
7079,3.84,3.60
7080,3.81,3.59
7081,3.79,3.58
7083,3.78,3.58
7084,3.79,3.59
7085,3.80,3.60
7086,3.83,3.62
7087,3.86,3.63
7089,3.89,3.66
7090,3.91,3.66
7091,3.91,3.66
7092,3.90,3.65
7093,3.89,3.64
7094,3.87,3.63
7095,3.84,3.61
7096,3.82,3.60
7098,3.79,3.58
7099,3.78,3.58
7100,3.78,3.58
7101,3.79,3.59
7102,3.81,3.61
7103,3.84,3.63
7104,3.87,3.65
7105,3.90,3.66
7107,3.90,3.66
7108,3.90,3.65
7109,3.88,3.64
7110,3.86,3.62
7111,3.84,3.61
7112,3.82,3.59
7113,3.79,3.58
7114,3.77,3.57
7116,3.76,3.57
7117,3.77,3.58
7118,3.79,3.59
7119,3.81,3.61
7120,3.84,3.63
7121,3.87,3.65
7122,3.88,3.65
7124,3.88,3.64
7126,3.87,3.63
7127,3.85,3.61
7128,3.83,3.60
7129,3.81,3.59
7130,3.78,3.57
7131,3.76,3.56
7132,3.74,3.56
7134,3.75,3.56
7135,3.76,3.57
7136,3.79,3.59
7137,3.81,3.61
7138,3.85,3.63
7139,3.87,3.64
7140,3.88,3.64
7141,3.87,3.63
7143,3.85,3.62
7144,3.83,3.60
7145,3.81,3.59
7146,3.79,3.57
7147,3.76,3.56
7148,3.74,3.55
7149,3.74,3.56
7150,3.75,3.57
7152,3.77,3.58
7153,3.80,3.60
7154,3.83,3.62
7155,3.86,3.64
7156,3.87,3.64
7157,3.87,3.63
7158,3.86,3.62
7160,3.84,3.61
7161,3.82,3.59
7162,3.79,3.58
7163,3.77,3.56
7164,3.74,3.55
7165,3.73,3.55
7166,3.74,3.56
7168,3.76,3.57
7170,3.78,3.59
7171,3.81,3.61
7172,3.84,3.63
7173,3.86,3.64
7174,3.87,3.63
7175,3.86,3.62
7176,3.84,3.61
7177,3.82,3.60
7179,3.80,3.58
7180,3.78,3.57
7181,3.75,3.55
7182,3.73,3.55
7183,3.73,3.55
7184,3.75,3.56
7185,3.77,3.58
7186,3.80,3.60
7188,3.83,3.62
7189,3.86,3.63
7190,3.87,3.63
7191,3.86,3.63
7192,3.85,3.62
7193,3.83,3.60
7194,3.81,3.59
7195,3.79,3.58
7197,3.76,3.56
7198,3.74,3.55
7199,3.73,3.55
7200,3.74,3.56
7201,3.76,3.57
7202,3.79,3.59
7203,3.82,3.61
7204,3.85,3.63
7206,3.86,3.63
7207,3.86,3.63
7208,3.85,3.62
7209,3.84,3.61
7211,3.82,3.59
7212,3.80,3.58
7213,3.77,3.56
7214,3.75,3.55
7216,3.73,3.55
7217,3.73,3.55
7218,3.75,3.56
7219,3.77,3.58
7220,3.80,3.60
7221,3.83,3.62
7222,3.85,3.63
7223,3.86,3.63
7225,3.85,3.62
7226,3.84,3.61
7227,3.82,3.60
7228,3.80,3.58
7229,3.78,3.57
7230,3.75,3.55
7231,3.73,3.55
7232,3.73,3.55
7234,3.73,3.55
7235,3.75,3.57
7236,3.78,3.59
7237,3.81,3.61
7238,3.84,3.63
7239,3.86,3.63
7240,3.86,3.62
7241,3.85,3.61
7243,3.83,3.60
7244,3.81,3.59
7245,3.79,3.58
7246,3.77,3.56
7247,3.74,3.55
7248,3.73,3.54
7249,3.73,3.55
7250,3.74,3.56
7252,3.77,3.58
7254,3.80,3.60
7255,3.83,3.62
7256,3.85,3.62
7257,3.85,3.62
7258,3.84,3.61
7259,3.82,3.59
7261,3.80,3.58
7262,3.78,3.57
7263,3.76,3.55
7264,3.73,3.54
7265,3.71,3.53
7266,3.71,3.54
7267,3.72,3.55
7268,3.74,3.56
7270,3.77,3.58
7271,3.80,3.60
7272,3.83,3.62
7273,3.84,3.62
7274,3.84,3.61
7275,3.83,3.60
7276,3.82,3.59
7277,3.80,3.58
7279,3.78,3.57
7280,3.75,3.55
7281,3.73,3.54
7282,3.72,3.54
7283,3.72,3.55
7284,3.74,3.56
7285,3.76,3.58
7286,3.79,3.59
7288,3.83,3.62
7289,3.85,3.63
7290,3.85,3.62
7291,3.85,3.61
7292,3.83,3.60
7293,3.82,3.59
7294,3.79,3.58
7296,3.77,3.56
7298,3.75,3.55
7299,3.73,3.54
7300,3.72,3.55
7301,3.73,3.56
7302,3.76,3.57
7303,3.78,3.59
7304,3.82,3.61
7305,3.85,3.63
7307,3.86,3.63
7308,3.85,3.62
7309,3.84,3.61
7310,3.83,3.60
7311,3.81,3.59
7312,3.78,3.57
7313,3.76,3.56
7314,3.74,3.55
7316,3.73,3.54
7317,3.73,3.55
7318,3.75,3.57
7319,3.77,3.58
7320,3.81,3.60
7321,3.84,3.62
7322,3.85,3.63
7324,3.86,3.63
7325,3.85,3.61
7326,3.83,3.60
7327,3.82,3.59
7328,3.79,3.58
7329,3.77,3.56
7330,3.74,3.54
7331,3.73,3.54
7333,3.73,3.55
7334,3.74,3.56
7335,3.76,3.57
7336,3.79,3.59
7337,3.82,3.62
7339,3.85,3.63
7340,3.86,3.63
7341,3.85,3.62
7343,3.84,3.61
7344,3.82,3.60
7345,3.80,3.58
7346,3.78,3.57
7347,3.76,3.55
7348,3.73,3.55
7349,3.72,3.55
7350,3.73,3.56
7352,3.75,3.57
7353,3.78,3.59
7354,3.81,3.61
7355,3.84,3.63
7356,3.86,3.63
7357,3.85,3.63
7358,3.84,3.61
7360,3.83,3.60
7361,3.81,3.59
7362,3.79,3.58
7363,3.76,3.56
7364,3.74,3.55
7365,3.72,3.55
7366,3.73,3.55
7367,3.74,3.56
7369,3.77,3.58
7370,3.80,3.60
7371,3.83,3.62
7372,3.85,3.63
7373,3.85,3.63
7374,3.85,3.62
7375,3.83,3.60
7376,3.82,3.60
7378,3.80,3.58
7379,3.77,3.57
7380,3.75,3.55
7382,3.73,3.55
7383,3.72,3.55
7384,3.73,3.55
7385,3.75,3.57
7386,3.78,3.59
7388,3.81,3.61
7389,3.84,3.63
7390,3.86,3.63
7391,3.85,3.62
7392,3.84,3.60
7393,3.83,3.60
7394,3.81,3.59
7395,3.79,3.58
7397,3.76,3.56
7398,3.74,3.55
7399,3.72,3.55
7400,3.73,3.55
7401,3.75,3.56
7402,3.77,3.58
7403,3.80,3.60
7404,3.83,3.62
7406,3.85,3.63
7407,3.86,3.63
7408,3.85,3.62
7409,3.83,3.61
7410,3.82,3.60
7411,3.80,3.58
7412,3.77,3.56
7413,3.75,3.55
7415,3.73,3.55
7416,3.73,3.55
7417,3.74,3.56
7418,3.76,3.57
7419,3.78,3.59
7420,3.82,3.62
7421,3.84,3.63
7422,3.85,3.63
7425,3.85,3.62
7426,3.84,3.61
7427,3.82,3.60
7428,3.80,3.58
7429,3.78,3.57
7430,3.76,3.56
7431,3.73,3.55
7432,3.72,3.55
7434,3.73,3.55
7435,3.74,3.57
7436,3.77,3.58
7437,3.80,3.60
7438,3.83,3.62
7439,3.85,3.63
7440,3.85,3.62
7441,3.84,3.61
7443,3.83,3.60
7444,3.81,3.59
7445,3.79,3.58
7446,3.77,3.56
7447,3.74,3.55
7448,3.72,3.54
7449,3.72,3.55
7450,3.73,3.55
7452,3.76,3.57
7453,3.78,3.59
7454,3.82,3.62
7455,3.84,3.63
7456,3.85,3.63
7457,3.85,3.62
7458,3.84,3.61
7459,3.82,3.60
7461,3.80,3.58
7462,3.78,3.57
7463,3.75,3.55
7464,3.73,3.55
7465,3.72,3.55
7467,3.73,3.55
7468,3.75,3.57
7469,3.77,3.58
7471,3.80,3.60
7472,3.83,3.63
7473,3.85,3.63
7474,3.85,3.62
7475,3.84,3.61
7476,3.83,3.60
7477,3.81,3.59
7478,3.79,3.58
7480,3.76,3.56
7481,3.74,3.55
7482,3.72,3.54
7483,3.72,3.55
7484,3.73,3.56
7485,3.76,3.57
7486,3.79,3.59
7487,3.82,3.62
7489,3.84,3.63
7490,3.85,3.63
7491,3.85,3.62
7492,3.83,3.61
7493,3.82,3.60
7494,3.80,3.58
7495,3.77,3.56
7497,3.75,3.56
7498,3.73,3.55
7499,3.72,3.55
7500,3.73,3.55
7501,3.75,3.57
7502,3.77,3.59
7503,3.81,3.61
7504,3.84,3.63
7506,3.85,3.63
7507,3.85,3.62
7508,3.84,3.61
7510,3.83,3.60
7511,3.81,3.59
7512,3.78,3.57
7513,3.76,3.56
7514,3.74,3.55
7516,3.72,3.55
7517,3.72,3.55
7518,3.74,3.57
7519,3.76,3.57
7520,3.79,3.60
7521,3.83,3.62
7522,3.85,3.63
7523,3.85,3.63
7525,3.85,3.61
7526,3.83,3.60
7527,3.81,3.59
7528,3.79,3.58
7529,3.77,3.57
7530,3.75,3.55
7531,3.72,3.54
7532,3.72,3.55
7534,3.73,3.56
7535,3.75,3.57
7536,3.78,3.59
7537,3.81,3.61
7538,3.84,3.63
7539,3.85,3.63
7540,3.85,3.62
7542,3.84,3.61
7543,3.82,3.60
7544,3.80,3.59
7545,3.78,3.57
7546,3.76,3.56
7547,3.73,3.55
7548,3.72,3.55
7549,3.73,3.55
7552,3.74,3.56
7553,3.77,3.58
7554,3.80,3.60
7555,3.83,3.63
7556,3.85,3.63
7557,3.86,3.63
7558,3.85,3.62
7559,3.83,3.61
7561,3.82,3.60
7562,3.79,3.58
7563,3.77,3.57
7564,3.75,3.55
7565,3.73,3.55
7566,3.73,3.55
7567,3.74,3.56
7568,3.76,3.58
7570,3.79,3.59
7571,3.82,3.62
7572,3.85,3.63
7573,3.86,3.63
7574,3.85,3.62
7575,3.84,3.61
7576,3.82,3.60
7577,3.80,3.59
7579,3.78,3.57
7580,3.75,3.56
7581,3.73,3.55
7582,3.72,3.55
7583,3.73,3.56
7584,3.75,3.57
7585,3.77,3.59
7586,3.80,3.61
7588,3.84,3.63
7589,3.85,3.63
7590,3.85,3.63
7591,3.84,3.62
7592,3.83,3.61
7593,3.81,3.59
7595,3.79,3.58
7597,3.76,3.56
7598,3.74,3.55
7599,3.72,3.55
7600,3.72,3.55
7601,3.74,3.56
7602,3.76,3.58
7603,3.79,3.60
7604,3.82,3.62
7606,3.85,3.63
7607,3.86,3.63
7608,3.85,3.62
7609,3.84,3.60
7610,3.82,3.60
7611,3.80,3.58
7612,3.78,3.57
7613,3.75,3.56
7615,3.73,3.54
7616,3.72,3.55
7617,3.73,3.56
7618,3.75,3.57
7619,3.78,3.59
7620,3.81,3.61
7621,3.84,3.63
7622,3.85,3.63
7624,3.85,3.62
7625,3.84,3.61
7626,3.83,3.60
7627,3.81,3.59
7628,3.78,3.58
7629,3.76,3.56
7630,3.73,3.55
7631,3.72,3.55
7633,3.72,3.55
7634,3.74,3.56
7635,3.76,3.58
7636,3.79,3.60
7638,3.83,3.62
7639,3.85,3.63
7640,3.85,3.63
7641,3.85,3.62
7643,3.83,3.61
7644,3.82,3.59
7645,3.79,3.58
7646,3.77,3.57
7647,3.75,3.55
7648,3.73,3.55
7649,3.72,3.55
7651,3.73,3.56
7652,3.75,3.58
7653,3.78,3.59
7654,3.81,3.61
7655,3.84,3.63
7656,3.86,3.63
7657,3.85,3.62
7658,3.84,3.61
7660,3.83,3.60
7661,3.81,3.59
7662,3.78,3.57
7663,3.76,3.56
7664,3.73,3.55
7665,3.72,3.55
7666,3.73,3.56
7667,3.75,3.57
7669,3.77,3.58
7670,3.80,3.60
7671,3.83,3.63
7672,3.85,3.63
7673,3.85,3.62
7674,3.85,3.62
7675,3.83,3.60
7676,3.81,3.59
7678,3.79,3.58
7680,3.77,3.56
7681,3.74,3.55
7682,3.72,3.55
7683,3.72,3.55
7684,3.73,3.56
7685,3.75,3.57
7686,3.78,3.59
7688,3.82,3.62
7689,3.84,3.63
7690,3.85,3.63
7691,3.85,3.62
7692,3.84,3.61
7693,3.82,3.60
7694,3.80,3.58
7695,3.78,3.57
7697,3.75,3.56
7698,3.73,3.54
7699,3.72,3.54
7700,3.73,3.55
7701,3.74,3.57
7702,3.77,3.58
7703,3.80,3.60
7704,3.83,3.63
7706,3.85,3.63
7707,3.85,3.62
7708,3.84,3.61
7709,3.83,3.60
7710,3.81,3.59
7711,3.79,3.58
7712,3.77,3.56
7713,3.74,3.55
7715,3.72,3.54
7716,3.72,3.55
7717,3.73,3.56
7718,3.76,3.57
7719,3.79,3.59
7720,3.82,3.62
7721,3.84,3.63
7723,3.85,3.63
7725,3.85,3.62
7726,3.83,3.61
7727,3.82,3.60
7728,3.80,3.58
7729,3.77,3.57
7730,3.75,3.55
7731,3.73,3.54
7733,3.72,3.55
7734,3.73,3.55
7735,3.74,3.57
7736,3.77,3.58
7737,3.80,3.61
7738,3.83,3.63
7739,3.85,3.63
7740,3.85,3.62
7742,3.84,3.61
7743,3.82,3.60
7744,3.81,3.59
7745,3.78,3.57
7746,3.76,3.56
7747,3.74,3.55
7748,3.72,3.55
7749,3.72,3.55
7751,3.74,3.56
7752,3.76,3.58
7753,3.79,3.60
7754,3.83,3.62
7755,3.85,3.63
7756,3.85,3.63
7757,3.85,3.62
7758,3.83,3.61
7760,3.82,3.59
7761,3.80,3.58
7762,3.77,3.57
7763,3.75,3.55
7764,3.72,3.55
7766,3.72,3.55
7767,3.73,3.56
7768,3.75,3.57
7770,3.78,3.59
7771,3.81,3.61
7772,3.84,3.63
7773,3.85,3.63
7774,3.85,3.62
7775,3.84,3.61
7776,3.82,3.60
7778,3.80,3.58
7779,3.78,3.57
7780,3.75,3.56
7781,3.73,3.54
7782,3.72,3.54
7783,3.72,3.55
7784,3.74,3.56
7785,3.76,3.58
7787,3.79,3.60
7788,3.83,3.62
7789,3.85,3.63
7790,3.85,3.62
7791,3.84,3.61
7792,3.83,3.60
7793,3.81,3.59
7794,3.79,3.58
7796,3.77,3.56
7797,3.74,3.55
7798,3.72,3.54
7799,3.72,3.55
7800,3.73,3.55
7801,3.75,3.57
7802,3.78,3.59
7803,3.81,3.61
7805,3.84,3.63
7806,3.85,3.63
7808,3.85,3.62
7809,3.83,3.61
7810,3.82,3.60
7811,3.80,3.59
7812,3.78,3.57
7813,3.75,3.56
7815,3.73,3.54
7816,3.72,3.55
7817,3.72,3.55
7818,3.74,3.56
7819,3.77,3.58
7820,3.80,3.60
7821,3.83,3.62
7822,3.85,3.63
7824,3.85,3.62
7825,3.84,3.61
7826,3.83,3.60
7827,3.81,3.59
7828,3.79,3.58
7829,3.76,3.56
7830,3.74,3.55
7831,3.72,3.54
7833,3.72,3.55
7834,3.73,3.56
7835,3.75,3.57
7836,3.78,3.59
7837,3.82,3.61
7838,3.84,3.63
7839,3.85,3.62
7840,3.84,3.62
7842,3.83,3.60
7843,3.82,3.59
7844,3.80,3.58
7845,3.77,3.57
7846,3.75,3.55
7847,3.73,3.54
7848,3.72,3.54
7849,3.73,3.55
7852,3.74,3.56
7853,3.77,3.58
7854,3.80,3.61
7855,3.83,3.62
7856,3.85,3.63
7857,3.85,3.62
7858,3.84,3.61
7859,3.83,3.60
7861,3.81,3.59
7862,3.79,3.58
7863,3.76,3.56
7864,3.74,3.55
7865,3.72,3.55
7866,3.73,3.55
7867,3.74,3.56
7868,3.76,3.58
7870,3.79,3.60
7871,3.83,3.62
7872,3.85,3.63
7873,3.86,3.63
7874,3.85,3.62
7875,3.84,3.60
7876,3.82,3.60
7878,3.80,3.58
7879,3.77,3.57
7880,3.75,3.55
7881,3.73,3.55
7882,3.72,3.55
7883,3.73,3.55
7884,3.75,3.57
7885,3.78,3.59
7887,3.81,3.61
7888,3.84,3.63
7889,3.86,3.63
7890,3.86,3.63
7891,3.84,3.62
7892,3.83,3.60
7894,3.81,3.59
7895,3.79,3.58
7897,3.76,3.56
7898,3.74,3.55
7899,3.72,3.55
7900,3.73,3.56
7901,3.74,3.57
7902,3.77,3.58
7903,3.80,3.60
7904,3.83,3.62
7906,3.85,3.63
7907,3.86,3.63
7908,3.85,3.62
7909,3.84,3.61
7910,3.82,3.60
7911,3.80,3.59
7912,3.78,3.57
7913,3.75,3.55
7915,3.73,3.55
7916,3.73,3.56
7917,3.74,3.56
7918,3.76,3.58
7919,3.78,3.59
7920,3.82,3.62
7921,3.85,3.63
7922,3.86,3.63
7924,3.85,3.63
7925,3.84,3.61
7926,3.83,3.60
7927,3.81,3.59
7928,3.78,3.58
7929,3.76,3.56
7930,3.73,3.55
7931,3.72,3.55
7933,3.73,3.56
7934,3.75,3.57
7936,3.77,3.58
7937,3.80,3.60
7938,3.83,3.63
7939,3.86,3.64
7940,3.86,3.63
7942,3.85,3.62
7943,3.84,3.61
7944,3.82,3.60
7945,3.80,3.59
7946,3.78,3.57
7947,3.75,3.56
7948,3.74,3.55
7949,3.73,3.55
7951,3.75,3.56
7952,3.77,3.58
7953,3.80,3.60
7954,3.83,3.62
7955,3.86,3.64
7956,3.88,3.65
7957,3.87,3.64
7958,3.86,3.63
7960,3.85,3.62
7961,3.83,3.61
7962,3.81,3.59
7963,3.78,3.58
7964,3.76,3.56
7965,3.75,3.57
7966,3.76,3.58
7967,3.78,3.59
7969,3.81,3.61
7970,3.84,3.63
7971,3.88,3.65
7972,3.91,3.67
7973,3.92,3.67
7974,3.92,3.66
7975,3.91,3.65
7976,3.90,3.66
7979,3.91,3.68
7980,3.93,3.71
7981,3.96,3.74
7982,3.99,3.76
7983,4.02,3.78
7984,4.05,3.79
7985,4.08,3.81
7986,4.11,3.82
7988,4.13,3.84
7989,4.16,3.85
7990,4.19,3.87
7991,4.22,3.88
7992,4.25,3.89
7993,4.27,3.91
7994,4.30,3.91
7996,4.33,3.93
7997,4.35,3.94
7998,4.37,3.95
7999,4.39,3.96
8000,4.41,3.97
8001,4.42,3.98
8002,4.44,3.99
8003,4.46,4.00
8005,4.47,4.01
8006,4.49,4.02
8007,4.50,4.02
8008,4.51,4.03
8009,4.51,4.03
8010,4.52,4.04
8011,4.53,4.04
8012,4.54,4.05
8014,4.54,4.05
8015,4.55,4.05
8016,4.55,4.06
8017,4.56,4.06
8018,4.56,4.06
8019,4.56,4.06
8020,4.56,4.06
8022,4.56,4.06
8024,4.56,4.06
8025,4.56,4.06
8026,4.56,4.06
8027,4.56,4.06
8028,4.56,4.06
8029,4.56,4.06
8030,4.56,4.06
8031,4.56,4.06
8033,4.55,4.06
8034,4.55,4.06
8035,4.55,4.06
8036,4.55,4.06
8037,4.55,4.06
8038,4.54,4.06
8039,4.54,4.05
8040,4.54,4.05
8042,4.54,4.05
8043,4.53,4.05
8044,4.53,4.05
8045,4.53,4.05
8046,4.53,4.05
8047,4.52,4.05
8048,4.52,4.05
8049,4.52,4.05
8051,4.52,4.04
8052,4.52,4.04
8053,4.52,4.04
8054,4.51,4.04
8055,4.51,4.04
8056,4.51,4.04
8057,4.51,4.04
8058,4.51,4.04
8060,4.51,4.04
8061,4.50,4.04
8062,4.50,4.04
8064,4.50,4.04
8065,4.50,4.04
8066,4.50,4.04
8067,4.50,4.04
8068,4.50,4.04
8070,4.50,4.04
8071,4.50,4.04
8072,4.50,4.04
8073,4.50,4.04
8074,4.50,4.04
8075,4.50,4.04
8076,4.50,4.04
8077,4.50,4.04
8078,4.50,4.04
8080,4.50,4.04
8081,4.50,4.04
8082,4.50,4.04
8083,4.50,4.04
8084,4.50,4.04
8085,4.50,4.04
8086,4.50,4.04
8087,4.50,4.04
8089,4.50,4.04
8090,4.50,4.04
8091,4.50,4.04
8092,4.50,4.04
8093,4.50,4.04
8094,4.50,4.04
8095,4.50,4.04
8096,4.50,4.04
8097,4.50,4.04
8099,4.50,4.04
8100,4.50,4.04
8101,4.50,4.04
8102,4.50,4.04
8103,4.50,4.04
8104,4.50,4.04
8105,4.50,4.04
8107,4.50,4.04
8109,4.50,4.04
8110,4.50,4.04
8111,4.50,4.04
8112,4.50,4.04
8113,4.50,4.04
8114,4.50,4.04
8115,4.50,4.04
8116,4.50,4.04
8117,4.50,4.04
8119,4.50,4.04
8120,4.50,4.04
8121,4.50,4.04
8122,4.50,4.04
8123,4.50,4.05
8124,4.50,4.04
8125,4.50,4.04
8126,4.50,4.05
8128,4.50,4.05
8129,4.50,4.04
8130,4.50,4.04
8131,4.50,4.04
8132,4.50,4.05
8133,4.50,4.05
8134,4.50,4.05
8135,4.50,4.05
8137,4.50,4.05
8138,4.50,4.05
8139,4.50,4.05
8140,4.50,4.05
8141,4.50,4.05
8142,4.50,4.05
8143,4.50,4.04
8144,4.50,4.05
8145,4.50,4.04
8147,4.50,4.04
8148,4.50,4.04
8150,4.50,4.04
8151,4.50,4.04
8152,4.50,4.04
8153,4.50,4.04
8154,4.50,4.04
8155,4.50,4.04
8157,4.50,4.04
8158,4.50,4.05
8159,4.50,4.04
8160,4.50,4.04
8161,4.50,4.04
8162,4.50,4.04
8163,4.50,4.04
8164,4.50,4.04
8165,4.50,4.04
8167,4.50,4.04
8168,4.50,4.04
8169,4.50,4.04
8170,4.50,4.04
8171,4.50,4.04
8172,4.50,4.04
8173,4.50,4.04
8174,4.50,4.04
8176,4.50,4.04
8177,4.50,4.04
8178,4.50,4.04
8179,4.50,4.04
8180,4.50,4.04
8181,4.50,4.04
8182,4.50,4.04
8183,4.50,4.04
8184,4.50,4.04
8186,4.50,4.04
8187,4.50,4.04
8188,4.50,4.04
8189,4.50,4.04
8190,4.50,4.04
8192,4.50,4.04
8193,4.50,4.04
8194,4.50,4.04
8196,4.50,4.04
8197,4.50,4.04
8198,4.50,4.04
8199,4.50,4.04
8200,4.50,4.04
8201,4.50,4.04
8202,4.50,4.04
8203,4.50,4.04
8204,4.50,4.04
8206,4.50,4.04
8207,4.50,4.04
8208,4.50,4.04
8209,4.50,4.04
8210,4.50,4.04
8211,4.50,4.04
8212,4.50,4.04
8213,4.50,4.04
8215,4.50,4.04
8216,4.50,4.05
8217,4.50,4.05
8218,4.50,4.04
8219,4.50,4.04
8220,4.50,4.05
8221,4.50,4.04
8222,4.50,4.04
8223,4.50,4.04
8225,4.50,4.04
8226,4.50,4.04
8227,4.50,4.04
8228,4.50,4.05
8229,4.50,4.05
8230,4.50,4.05
8231,4.50,4.05
8232,4.50,4.05
8235,4.50,4.05
8236,4.50,4.05
8237,4.50,4.05
8238,4.50,4.05
8239,4.50,4.05
8240,4.50,4.05
8241,4.50,4.05
8242,4.50,4.05
8244,4.50,4.05
8245,4.50,4.05
8246,4.50,4.05
8247,4.50,4.05
8248,4.50,4.05
8249,4.50,4.05
8250,4.50,4.05
8251,4.50,4.05
8253,4.50,4.05
8254,4.50,4.05
8255,4.50,4.05
8256,4.50,4.05
8257,4.50,4.05
8258,4.50,4.05
8259,4.50,4.05
8260,4.50,4.05
8261,4.50,4.05
8263,4.50,4.05
8264,4.50,4.05
8265,4.50,4.05
8266,4.50,4.05
8267,4.50,4.05
8268,4.50,4.06
8269,4.50,4.05
8270,4.50,4.06
8272,4.50,4.06
8273,4.50,4.05
8274,4.50,4.05
8275,4.50,4.06
8276,4.50,4.05
8278,4.50,4.05
8279,4.50,4.06
8280,4.50,4.06
8281,4.50,4.05
8283,4.50,4.05
8284,4.50,4.05
8285,4.50,4.06
8286,4.50,4.05
8287,4.50,4.06
8288,4.50,4.06
8289,4.50,4.05
8290,4.50,4.06
8292,4.50,4.06
8293,4.50,4.06
8294,4.50,4.06
8295,4.50,4.06
8296,4.50,4.06
8297,4.50,4.06
8298,4.50,4.06
8299,4.50,4.06
8301,4.50,4.06
8302,4.50,4.06
8303,4.50,4.06
8304,4.50,4.06
8305,4.50,4.06
8306,4.50,4.06
8307,4.50,4.06
8308,4.50,4.06
8310,4.50,4.06
8311,4.50,4.06
8312,4.50,4.06
8313,4.50,4.06
8314,4.50,4.06
8315,4.50,4.06
8316,4.50,4.06
8317,4.50,4.06
8318,4.50,4.06
8321,4.50,4.06
8322,4.50,4.06
8323,4.50,4.06
8324,4.50,4.06
8325,4.50,4.06
8326,4.50,4.06
8327,4.50,4.07
8328,4.50,4.06
8330,4.50,4.07
8331,4.50,4.07
8332,4.50,4.07
8333,4.50,4.07
8334,4.50,4.07
8335,4.50,4.07
8336,4.50,4.07
8337,4.50,4.07
8339,4.50,4.07
8340,4.50,4.07
8341,4.50,4.07
8342,4.50,4.07
8343,4.50,4.07
8344,4.50,4.07
8345,4.50,4.07
8346,4.50,4.07
8348,4.50,4.07
8349,4.50,4.07
8350,4.50,4.07
8351,4.50,4.07
8352,4.50,4.07
8353,4.50,4.07
8354,4.50,4.07
8355,4.50,4.07
8356,4.50,4.07
8358,4.50,4.07
8359,4.50,4.07
8360,4.50,4.07
8361,4.50,4.07
8363,4.50,4.07
8364,4.50,4.07
8365,4.50,4.07
8366,4.50,4.07
8368,4.50,4.08
8369,4.50,4.07
8370,4.50,4.07
8371,4.50,4.07
8372,4.50,4.07
8373,4.50,4.07
8374,4.50,4.07
8375,4.50,4.07
8376,4.50,4.07
8378,4.50,4.07
8379,4.50,4.07
8380,4.50,4.07
8381,4.50,4.07
8382,4.50,4.07
8383,4.50,4.07
8384,4.50,4.07
8385,4.50,4.07
8387,4.50,4.07
8388,4.50,4.07
8389,4.50,4.07
8390,4.50,4.07
8391,4.50,4.07
8392,4.50,4.07
8393,4.50,4.07
8394,4.50,4.07
8395,4.50,4.07
8397,4.50,4.07
8398,4.50,4.07
8399,4.50,4.07
8400,4.50,4.07
8401,4.50,4.07
8402,4.50,4.07
8403,4.50,4.07
8404,4.50,4.07
8407,4.50,4.07
8408,4.50,4.07
8409,4.50,4.08
8410,4.50,4.08
8411,4.50,4.07
8412,4.50,4.08
8413,4.50,4.08
8414,4.50,4.08
8415,4.50,4.08
8417,4.50,4.08
8418,4.50,4.08
8419,4.50,4.08
8420,4.50,4.08
8421,4.50,4.08
8422,4.50,4.08
8423,4.50,4.08
8424,4.50,4.08
8426,4.50,4.08
8427,4.50,4.08
8428,4.50,4.08
8429,4.50,4.08
8430,4.50,4.08
8431,4.50,4.08
8432,4.50,4.08
8433,4.50,4.08
8434,4.50,4.08
8436,4.50,4.08
8437,4.50,4.08
8438,4.50,4.08
8439,4.50,4.08
8440,4.50,4.08
8441,4.50,4.08
8442,4.50,4.08
8443,4.50,4.08
8445,4.50,4.08
8446,4.50,4.08
8448,4.50,4.08
8449,4.50,4.08
8450,4.50,4.08
8451,4.50,4.08
8452,4.50,4.08
8453,4.50,4.08
8454,4.50,4.08
8456,4.50,4.08
8457,4.50,4.08
8458,4.50,4.08
8459,4.50,4.08
8460,4.50,4.08
8461,4.50,4.08
8462,4.50,4.08
8463,4.50,4.08
8465,4.50,4.08
8466,4.50,4.08
8467,4.50,4.08
8468,4.50,4.08
8469,4.50,4.08
8470,4.50,4.08
8471,4.50,4.08
8472,4.50,4.08
8473,4.50,4.08
8475,4.50,4.08
8476,4.50,4.08
8477,4.50,4.08
8478,4.50,4.08
8479,4.50,4.08
8480,4.50,4.08
8481,4.50,4.08
8482,4.50,4.08
8484,4.50,4.07
8485,4.50,4.08
8486,4.50,4.08
8487,4.50,4.07
8488,4.50,4.07
8489,4.50,4.07
8491,4.50,4.07
8492,4.50,4.07
8494,4.50,4.07
8495,4.50,4.07
8496,4.50,4.07
8497,4.50,4.07
8498,4.50,4.07
8499,4.50,4.07
8500,4.50,4.07
8501,4.50,4.07
8503,4.50,4.07
8504,4.50,4.07
8505,4.50,4.07
8506,4.50,4.06
8507,4.50,4.06
8508,4.49,4.06
8509,4.50,4.06
8510,4.50,4.06
8511,4.50,4.06
8513,4.50,4.06
8514,4.50,4.06
8515,4.50,4.06
8516,4.50,4.06
8517,4.50,4.06
8518,4.50,4.06
8519,4.50,4.06
8520,4.49,4.06
8522,4.49,4.06
8523,4.49,4.06
8524,4.49,4.05
8525,4.49,4.06
8526,4.50,4.06
8527,4.50,4.05
8528,4.50,4.05
8529,4.50,4.05
8531,4.49,4.05
8532,4.49,4.05
8534,4.49,4.05
8535,4.49,4.05
8536,4.49,4.05
8537,4.49,4.05
8538,4.49,4.05
8539,4.49,4.05
8541,4.49,4.05
8542,4.49,4.05
8543,4.49,4.05
8544,4.49,4.05
8545,4.49,4.05
8546,4.49,4.04
8547,4.49,4.04
8548,4.49,4.04
8550,4.49,4.04
8551,4.49,4.04
8552,4.49,4.04
8553,4.49,4.04
8554,4.49,4.04
8555,4.50,4.04
8556,4.50,4.04
8557,4.50,4.04
8559,4.50,4.04
8560,4.50,4.04
8561,4.50,4.03
8562,4.49,4.03
8563,4.49,4.03
8564,4.49,4.03
8565,4.49,4.03
8566,4.50,4.03
8567,4.49,4.03
8569,4.49,4.03
8570,4.49,4.03
8571,4.49,4.03
8572,4.49,4.03
8573,4.49,4.02
8574,4.49,4.02
8576,4.49,4.02
8577,4.49,4.02
8579,4.49,4.02
8580,4.49,4.02
8581,4.49,4.02
8582,4.49,4.01
8583,4.49,4.01
8584,4.49,4.01
8585,4.49,4.01
8586,4.49,4.01
8588,4.50,4.00
8589,4.49,4.00
8590,4.49,4.00
8591,4.49,4.00
8592,4.49,3.99
8593,4.50,3.99
8594,4.50,3.99
8595,4.49,3.99
8597,4.49,3.99
8598,4.49,3.98
8599,4.50,3.98
8600,4.49,3.98
8601,4.49,3.98
8602,4.49,3.97
8603,4.50,3.97
8604,4.49,3.97
8606,4.49,3.97
8607,4.49,3.96
8608,4.49,3.96
8609,4.49,3.96
8610,4.49,3.95
8611,4.49,3.95
8612,4.49,3.95
8613,4.49,3.95
8615,4.49,3.94
8616,4.49,3.94
8617,4.49,3.94
8619,4.49,3.94
8620,4.49,3.94
8621,4.49,3.93
8622,4.49,3.93
8623,4.49,3.93
8625,4.49,3.92
8626,4.49,3.92
8627,4.49,3.92
8628,4.49,3.91
8629,4.49,3.91
8630,4.49,3.91
8631,4.49,3.91
8632,4.49,3.91
8634,4.49,3.91
8635,4.49,3.90
8636,4.49,3.90
8637,4.49,3.90
8638,4.49,3.90
8639,4.49,3.89
8640,4.49,3.89
8641,4.49,3.89
8643,4.49,3.89
8644,4.49,3.88
8645,4.49,3.88
8646,4.49,3.88
8647,4.49,3.88
8648,4.49,3.87
8649,4.49,3.87
8650,4.49,3.87
8652,4.49,3.87
8653,4.49,3.87
8654,4.49,3.86
8655,4.49,3.86
8656,4.49,3.86
8657,4.49,3.86
8658,4.49,3.86
8659,4.49,3.86
8662,4.49,3.85
8663,4.49,3.85
8664,4.49,3.85
8665,4.49,3.85
8666,4.49,3.85
8667,4.49,3.84
8668,4.49,3.84
8670,4.49,3.84
8671,4.49,3.84
8672,4.49,3.84
8673,4.49,3.84
8674,4.49,3.83
8675,4.49,3.83
8676,4.49,3.83
8677,4.49,3.83
8679,4.49,3.83
8680,4.49,3.83
8681,4.49,3.83
8682,4.49,3.83
8683,4.49,3.83
8684,4.49,3.83
8685,4.49,3.82
8686,4.49,3.82
8688,4.49,3.82
8689,4.49,3.82
8690,4.49,3.82
8691,4.49,3.82
8692,4.49,3.82
8693,4.49,3.82
8694,4.49,3.82
8695,4.49,3.82
8697,4.49,3.82
8698,4.49,3.82
8699,4.49,3.81
8700,4.49,3.81
8701,4.49,3.81
8702,4.49,3.81
8704,4.49,3.81
8705,4.49,3.81
8707,4.49,3.81
8708,4.49,3.81
8709,4.49,3.81
8710,4.49,3.81
8711,4.49,3.81
8712,4.49,3.81
8713,4.49,3.81
8715,4.49,3.81
8716,4.49,3.81
8717,4.49,3.81
8718,4.49,3.81
8719,4.49,3.81
8720,4.49,3.81
8721,4.49,3.81
8722,4.49,3.81
8724,4.49,3.81
8725,4.49,3.81
8726,4.49,3.81
8727,4.49,3.81
8728,4.49,3.81
8729,4.49,3.81
8730,4.49,3.81
8731,4.49,3.81
8733,4.49,3.81
