time_ms,ch1_v,ch2_v
70,3.40,3.40
71,3.39,3.39
72,3.38,3.38
73,3.37,3.37
74,3.36,3.36
75,3.35,3.35
76,3.34,3.34
77,3.33,3.35
78,3.34,3.38
79,3.36,3.41
80,3.38,3.43
81,3.40,3.43
83,3.40,3.43
84,3.41,3.43
86,3.40,3.42
87,3.40,3.41
88,3.39,3.40
89,3.38,3.39
90,3.37,3.37
91,3.36,3.36
92,3.35,3.35
93,3.34,3.34
94,3.33,3.34
95,3.32,3.35
96,3.33,3.38
97,3.36,3.41
98,3.38,3.42
99,3.39,3.42
100,3.40,3.42
101,3.40,3.42
102,3.40,3.41
103,3.39,3.40
104,3.38,3.39
105,3.37,3.38
106,3.36,3.36
107,3.35,3.35
109,3.34,3.34
110,3.33,3.33
111,3.32,3.34
112,3.33,3.36
113,3.35,3.39
114,3.37,3.41
115,3.39,3.42
116,3.39,3.42
117,3.39,3.41
118,3.39,3.40
119,3.39,3.39
120,3.38,3.38
121,3.37,3.37
123,3.36,3.36
124,3.35,3.35
125,3.34,3.33
126,3.32,3.32
128,3.31,3.32
129,3.30,3.35
130,3.31,3.38
131,3.33,3.39
132,3.33,3.39
133,3.33,3.39
134,3.33,3.38
135,3.33,3.37
136,3.32,3.36
138,3.31,3.35
139,3.30,3.34
140,3.29,3.32
141,3.28,3.31
142,3.27,3.30
143,3.26,3.28
144,3.24,3.27
145,3.24,3.28
146,3.24,3.30
147,3.26,3.31
148,3.26,3.32
149,3.27,3.31
150,3.26,3.30
152,3.26,3.29
153,3.26,3.28
154,3.25,3.27
155,3.24,3.26
156,3.23,3.25
157,3.22,3.24
158,3.21,3.23
159,3.20,3.21
160,3.19,3.20
161,3.18,3.21
162,3.18,3.23
163,3.19,3.24
164,3.20,3.25
166,3.20,3.25
167,3.20,3.24
168,3.20,3.23
169,3.20,3.22
171,3.19,3.21
172,3.18,3.20
173,3.17,3.19
174,3.16,3.18
175,3.15,3.17
176,3.14,3.16
177,3.13,3.15
178,3.12,3.14
179,3.11,3.16
181,3.12,3.17
182,3.13,3.17
183,3.13,3.17
184,3.12,3.17
185,3.12,3.16
186,3.11,3.15
187,3.11,3.14
188,3.10,3.13
189,3.09,3.12
190,3.08,3.11
191,3.07,3.10
192,3.06,3.09
193,3.05,3.08
195,3.04,3.07
196,3.04,3.06
197,3.04,3.07
198,3.04,3.06
199,3.03,3.06
200,3.03,3.05
201,3.02,3.04
202,3.02,3.04
203,3.01,3.03
204,3.00,3.02
205,2.99,3.01
206,2.98,3.00
207,2.98,3.00
208,2.97,2.98
209,2.96,2.98
211,2.95,2.97
212,2.94,2.96
214,2.93,2.95
215,2.92,2.94
216,2.92,2.93
217,2.91,2.92
218,2.90,2.91
219,2.89,2.91
220,2.88,2.90
221,2.88,2.89
222,2.87,2.88
223,2.86,2.87
225,2.86,2.87
226,2.85,2.86
227,2.84,2.85
228,2.83,2.84
229,2.83,2.83
230,2.82,2.83
231,2.82,2.83
232,2.81,2.82
233,2.81,2.81
234,2.80,2.81
235,2.79,2.80
236,2.79,2.80
237,2.78,2.79
239,2.78,2.79
240,2.77,2.78
241,2.77,2.77
242,2.76,2.77
243,2.76,2.76
244,2.75,2.76
245,2.75,2.75
246,2.74,2.75
247,2.74,2.75
248,2.73,2.74
249,2.73,2.74
250,2.72,2.74
252,2.72,2.73
253,2.72,2.73
254,2.71,2.72
256,2.71,2.72
257,2.70,2.71
258,2.70,2.71
259,2.69,2.70
260,2.69,2.71
261,2.70,2.73
262,2.72,2.77
263,2.76,2.81
264,2.80,2.83
265,2.82,2.84
267,2.84,2.85
268,2.85,2.85
269,2.86,2.85
270,2.86,2.85
271,2.87,2.85
272,2.87,2.85
273,2.87,2.85
274,2.87,2.85
275,2.87,2.85
276,2.87,2.87
277,2.90,2.90
278,2.94,2.94
279,2.98,2.99
280,3.03,3.02
282,3.05,3.04
283,3.07,3.04
284,3.09,3.04
285,3.10,3.05
286,3.10,3.05
287,3.10,3.05
288,3.10,3.05
289,3.10,3.04
290,3.10,3.04
291,3.09,3.04
292,3.09,3.04
293,3.09,3.06
294,3.11,3.09
295,3.13,3.13
297,3.16,3.15
299,3.18,3.17
300,3.20,3.17
301,3.20,3.17
302,3.20,3.17
303,3.20,3.17
304,3.20,3.17
305,3.20,3.16
306,3.19,3.15
307,3.18,3.15
308,3.17,3.14
309,3.16,3.14
310,3.16,3.16
312,3.18,3.19
313,3.22,3.24
314,3.25,3.26
315,3.27,3.27
316,3.28,3.27
317,3.28,3.27
318,3.29,3.26
319,3.29,3.26
320,3.28,3.26
321,3.28,3.25
322,3.27,3.24
323,3.26,3.24
324,3.26,3.23
326,3.24,3.22
327,3.25,3.24
328,3.26,3.26
329,3.29,3.30
330,3.32,3.32
331,3.34,3.33
332,3.35,3.34
333,3.36,3.33
334,3.36,3.33
335,3.36,3.33
336,3.35,3.32
337,3.34,3.31
338,3.33,3.30
340,3.32,3.29
342,3.31,3.28
343,3.30,3.28
344,3.30,3.29
345,3.32,3.32
346,3.34,3.35
347,3.37,3.38
348,3.40,3.39
349,3.41,3.40
350,3.42,3.39
351,3.42,3.39
352,3.41,3.38
353,3.41,3.37
355,3.40,3.36
356,3.39,3.36
357,3.38,3.35
358,3.37,3.33
359,3.35,3.32
360,3.35,3.34
361,3.36,3.36
362,3.39,3.40
363,3.42,3.42
364,3.44,3.43
365,3.45,3.44
366,3.46,3.44
367,3.46,3.43
369,3.46,3.42
370,3.45,3.42
371,3.44,3.41
372,3.43,3.40
373,3.42,3.39
374,3.41,3.37
375,3.40,3.37
376,3.39,3.37
377,3.40,3.40
378,3.42,3.43
379,3.45,3.45
380,3.47,3.46
381,3.48,3.47
384,3.48,3.47
385,3.48,3.46
386,3.48,3.45
387,3.47,3.44
388,3.46,3.43
389,3.45,3.42
390,3.44,3.41
391,3.43,3.40
392,3.41,3.39
393,3.40,3.39
394,3.41,3.41
395,3.43,3.44
396,3.45,3.46
398,3.47,3.47
399,3.48,3.47
400,3.48,3.47
401,3.48,3.46
402,3.48,3.45
403,3.47,3.44
404,3.46,3.43
405,3.45,3.42
406,3.43,3.41
407,3.42,3.40
408,3.41,3.38
409,3.40,3.39
410,3.40,3.40
412,3.41,3.42
413,3.43,3.44
414,3.45,3.45
415,3.46,3.45
416,3.46,3.45
417,3.46,3.44
418,3.45,3.43
419,3.45,3.42
420,3.44,3.41
421,3.42,3.40
422,3.41,3.39
423,3.40,3.38
424,3.39,3.36
427,3.37,3.37
428,3.38,3.37
429,3.39,3.39
430,3.41,3.42
431,3.42,3.42
432,3.43,3.43
433,3.43,3.42
434,3.43,3.42
435,3.42,3.41
436,3.42,3.40
437,3.41,3.39
438,3.40,3.37
440,3.38,3.36
441,3.37,3.35
442,3.36,3.34
443,3.35,3.34
444,3.35,3.35
445,3.35,3.35
446,3.35,3.36
447,3.36,3.36
448,3.36,3.36
449,3.36,3.35
450,3.35,3.34
451,3.34,3.33
452,3.33,3.32
454,3.32,3.31
455,3.31,3.30
456,3.30,3.28
457,3.28,3.27
458,3.27,3.26
459,3.26,3.26
460,3.26,3.26
461,3.25,3.26
462,3.25,3.26
463,3.25,3.26
464,3.25,3.26
465,3.25,3.25
466,3.24,3.24
468,3.23,3.23
470,3.22,3.22
471,3.21,3.21
472,3.20,3.20
473,3.19,3.19
474,3.17,3.18
475,3.16,3.16
476,3.16,3.17
477,3.17,3.19
478,3.20,3.23
479,3.24,3.26
480,3.27,3.28
482,3.29,3.29
483,3.31,3.29
484,3.32,3.28
485,3.32,3.28
486,3.32,3.28
487,3.32,3.27
488,3.31,3.27
489,3.30,3.26
490,3.29,3.25
491,3.28,3.25
492,3.28,3.26
493,3.30,3.28
494,3.32,3.31
496,3.36,3.35
497,3.40,3.38
498,3.43,3.39
499,3.44,3.40
500,3.45,3.40
501,3.45,3.39
502,3.45,3.39
503,3.45,3.38
504,3.45,3.39
505,3.46,3.42
506,3.49,3.45
507,3.54,3.48
508,3.59,3.53
510,3.64,3.56
512,3.69,3.60
513,3.74,3.64
514,3.79,3.68
515,3.84,3.71
516,3.89,3.74
517,3.94,3.78
518,3.99,3.82
519,4.04,3.85
520,4.09,3.89
521,4.14,3.93
522,4.19,3.97
523,4.23,4.01
525,4.28,4.05
526,4.32,4.09
527,4.35,4.12
528,4.39,4.15
529,4.42,4.18
530,4.45,4.21
531,4.48,4.24
532,4.51,4.27
533,4.54,4.29
534,4.57,4.32
535,4.58,4.34
536,4.61,4.36
537,4.63,4.38
539,4.65,4.40
540,4.66,4.42
541,4.68,4.44
542,4.70,4.45
543,4.71,4.46
544,4.72,4.47
545,4.73,4.48
546,4.73,4.48
547,4.74,4.49
548,4.74,4.49
549,4.74,4.49
550,4.73,4.49
551,4.73,4.49
553,4.72,4.49
555,4.72,4.48
556,4.71,4.48
557,4.70,4.48
558,4.69,4.47
559,4.68,4.47
560,4.66,4.46
561,4.65,4.46
562,4.64,4.46
563,4.63,4.45
564,4.62,4.45
565,4.60,4.44
567,4.59,4.44
568,4.58,4.44
569,4.57,4.43
570,4.56,4.43
571,4.55,4.43
572,4.54,4.42
573,4.52,4.42
574,4.51,4.42
575,4.50,4.41
576,4.49,4.41
577,4.48,4.41
578,4.47,4.41
579,4.47,4.41
581,4.45,4.41
582,4.45,4.41
583,4.44,4.41
584,4.43,4.41
585,4.42,4.41
586,4.42,4.41
587,4.41,4.41
588,4.40,4.41
589,4.40,4.41
590,4.39,4.41
591,4.38,4.41
592,4.38,4.42
593,4.38,4.42
595,4.37,4.42
596,4.37,4.42
598,4.36,4.42
599,4.36,4.43
600,4.36,4.43
601,4.35,4.43
602,4.35,4.43
603,4.35,4.43
604,4.35,4.44
605,4.35,4.44
606,4.35,4.44
607,4.34,4.45
608,4.34,4.45
610,4.34,4.45
611,4.34,4.46
612,4.33,4.46
613,4.33,4.46
614,4.33,4.47
615,4.33,4.47
616,4.33,4.47
617,4.33,4.48
618,4.33,4.48
619,4.33,4.49
620,4.32,4.49
621,4.32,4.49
623,4.32,4.49
624,4.32,4.50
625,4.32,4.50
626,4.32,4.50
627,4.32,4.51
628,4.32,4.51
629,4.32,4.51
630,4.32,4.52
631,4.31,4.52
632,4.31,4.53
633,4.31,4.53
634,4.31,4.53
635,4.31,4.54
637,4.31,4.54
638,4.31,4.54
640,4.31,4.55
641,4.30,4.55
642,4.30,4.55
643,4.30,4.56
644,4.30,4.56
645,4.30,4.56
646,4.30,4.57
647,4.30,4.57
648,4.30,4.57
649,4.29,4.57
650,4.29,4.58
651,4.29,4.58
653,4.29,4.58
654,4.29,4.59
655,4.29,4.59
656,4.29,4.59
657,4.29,4.60
658,4.28,4.60
659,4.28,4.60
660,4.28,4.61
661,4.28,4.61
662,4.28,4.61
663,4.28,4.62
664,4.28,4.62
665,4.28,4.63
667,4.28,4.63
668,4.28,4.63
669,4.27,4.64
670,4.27,4.64
671,4.27,4.64
672,4.27,4.65
673,4.27,4.65
674,4.27,4.65
675,4.27,4.66
676,4.27,4.66
677,4.26,4.66
678,4.26,4.67
679,4.26,4.67
681,4.26,4.68
683,4.26,4.68
684,4.26,4.68
685,4.26,4.68
686,4.26,4.69
687,4.25,4.69
688,4.26,4.69
689,4.25,4.70
690,4.25,4.70
691,4.25,4.71
692,4.25,4.71
693,4.25,4.71
694,4.25,4.72
696,4.25,4.72
697,4.25,4.72
698,4.25,4.72
699,4.25,4.73
700,4.25,4.73
701,4.25,4.73
702,4.24,4.74
703,4.24,4.74
704,4.24,4.74
705,4.24,4.75
706,4.24,4.75
707,4.24,4.75
709,4.24,4.76
710,4.24,4.76
711,4.24,4.76
712,4.24,4.77
713,4.24,4.77
714,4.24,4.77
715,4.24,4.77
716,4.23,4.78
717,4.23,4.78
718,4.23,4.78
719,4.23,4.78
720,4.23,4.79
721,4.23,4.79
723,4.23,4.79
724,4.23,4.80
726,4.23,4.80
727,4.23,4.80
728,4.23,4.80
729,4.23,4.81
730,4.23,4.81
731,4.23,4.81
732,4.23,4.82
733,4.23,4.82
734,4.23,4.82
735,4.23,4.83
736,4.23,4.83
738,4.22,4.83
739,4.22,4.83
740,4.22,4.84
741,4.22,4.84
742,4.22,4.84
743,4.22,4.85
744,4.22,4.85
745,4.22,4.85
746,4.22,4.86
747,4.22,4.86
748,4.22,4.86
749,4.22,4.86
750,4.22,4.87
752,4.22,4.87
753,4.22,4.87
754,4.22,4.88
755,4.22,4.88
756,4.22,4.88
757,4.22,4.89
758,4.22,4.89
759,4.21,4.89
760,4.21,4.89
761,4.21,4.90
762,4.21,4.90
763,4.21,4.90
764,4.21,4.90
765,4.21,4.90
768,4.21,4.91
769,4.21,4.91
770,4.21,4.91
771,4.21,4.91
772,4.21,4.91
773,4.21,4.91
774,4.21,4.92
775,4.21,4.92
776,4.21,4.92
777,4.21,4.92
778,4.21,4.92
779,4.21,4.92
781,4.20,4.92
782,4.20,4.92
783,4.20,4.93
784,4.20,4.93
785,4.20,4.93
786,4.20,4.93
787,4.20,4.93
788,4.20,4.93
789,4.20,4.93
790,4.20,4.93
791,4.20,4.94
792,4.20,4.93
793,4.20,4.94
794,4.20,4.94
796,4.20,4.94
797,4.20,4.94
798,4.20,4.94
799,4.20,4.94
800,4.20,4.94
801,4.20,4.94
802,4.20,4.94
803,4.20,4.94
804,4.19,4.94
805,4.19,4.94
806,4.19,4.94
807,4.19,4.95
808,4.19,4.95
809,4.19,4.95
812,4.19,4.95
813,4.19,4.95
814,4.19,4.95
815,4.19,4.95
816,4.19,4.95
817,4.19,4.95
818,4.19,4.95
819,4.19,4.95
820,4.19,4.95
821,4.19,4.95
822,4.19,4.95
823,4.19,4.95
825,4.19,4.95
826,4.19,4.96
827,4.19,4.95
828,4.19,4.96
829,4.18,4.96
830,4.18,4.96
831,4.18,4.96
832,4.18,4.96
833,4.18,4.96
834,4.18,4.96
835,4.18,4.96
836,4.18,4.96
838,4.18,4.96
839,4.18,4.96
840,4.18,4.96
841,4.18,4.96
842,4.18,4.96
843,4.18,4.96
844,4.18,4.96
845,4.18,4.96
846,4.18,4.96
847,4.18,4.96
848,4.18,4.96
849,4.18,4.96
851,4.18,4.96
852,4.18,4.96
854,4.18,4.96
855,4.18,4.96
856,4.18,4.96
857,4.18,4.96
858,4.18,4.96
859,4.18,4.96
860,4.18,4.96
861,4.18,4.96
862,4.18,4.96
863,4.18,4.96
865,4.18,4.96
866,4.18,4.96
867,4.18,4.96
868,4.18,4.96
869,4.18,4.95
870,4.18,4.95
871,4.18,4.95
872,4.18,4.95
873,4.18,4.95
874,4.18,4.95
875,4.18,4.95
876,4.18,4.94
878,4.18,4.94
879,4.18,4.94
880,4.18,4.94
881,4.18,4.94
882,4.18,4.94
883,4.18,4.93
884,4.18,4.93
885,4.18,4.93
886,4.18,4.92
887,4.18,4.92
888,4.18,4.92
889,4.18,4.92
890,4.18,4.92
892,4.17,4.91
893,4.18,4.91
894,4.18,4.91
896,4.18,4.90
897,4.17,4.90
898,4.17,4.90
899,4.17,4.90
900,4.17,4.89
901,4.17,4.89
902,4.17,4.89
903,4.17,4.88
904,4.17,4.88
905,4.17,4.88
907,4.17,4.87
908,4.17,4.87
909,4.17,4.87
910,4.17,4.86
911,4.17,4.86
912,4.17,4.86
913,4.17,4.85
914,4.17,4.85
915,4.17,4.85
916,4.17,4.84
917,4.17,4.84
918,4.17,4.84
919,4.17,4.83
921,4.17,4.83
922,4.17,4.83
923,4.17,4.82
924,4.17,4.82
925,4.17,4.81
926,4.17,4.81
927,4.17,4.80
928,4.16,4.80
929,4.16,4.79
930,4.16,4.79
931,4.16,4.79
932,4.16,4.78
933,4.16,4.78
935,4.16,4.78
936,4.16,4.78
937,4.16,4.77
939,4.16,4.77
940,4.16,4.76
941,4.16,4.76
942,4.16,4.76
943,4.16,4.75
944,4.16,4.75
945,4.16,4.74
946,4.16,4.74
947,4.16,4.73
949,4.16,4.73
950,4.16,4.72
951,4.16,4.72
952,4.16,4.71
953,4.16,4.71
954,4.16,4.70
955,4.16,4.70
956,4.16,4.69
957,4.16,4.69
958,4.15,4.68
959,4.16,4.68
960,4.15,4.68
961,4.15,4.67
963,4.15,4.67
964,4.15,4.66
965,4.15,4.65
966,4.15,4.65
967,4.15,4.65
968,4.15,4.64
969,4.15,4.64
970,4.15,4.63
971,4.15,4.63
972,4.15,4.62
973,4.15,4.62
974,4.15,4.61
975,4.15,4.61
977,4.15,4.60
978,4.15,4.60
979,4.15,4.59
980,4.15,4.59
982,4.15,4.58
983,4.15,4.58
984,4.15,4.57
985,4.15,4.57
986,4.15,4.57
987,4.15,4.56
988,4.15,4.56
989,4.15,4.55
990,4.15,4.55
992,4.15,4.54
993,4.14,4.54
994,4.14,4.54
995,4.14,4.53
996,4.14,4.53
997,4.14,4.52
998,4.14,4.52
999,4.14,4.51
1000,4.14,4.51
1001,4.14,4.51
1002,4.14,4.50
1004,4.14,4.50
1005,4.14,4.49
1006,4.14,4.49
1007,4.14,4.48
1008,4.14,4.48
1009,4.14,4.47
1010,4.14,4.47
1011,4.14,4.47
1013,4.14,4.46
1014,4.14,4.46
1015,4.14,4.45
1016,4.14,4.45
1017,4.14,4.44
1018,4.14,4.44
1019,4.14,4.44
1020,4.14,4.43
1022,4.14,4.43
1024,4.14,4.42
1025,4.14,4.42
1026,4.14,4.42
1027,4.14,4.41
1028,4.14,4.41
1029,4.14,4.41
1031,4.14,4.40
1032,4.14,4.40
1033,4.14,4.39
1034,4.14,4.39
1035,4.14,4.39
1036,4.14,4.39
1037,4.14,4.38
1038,4.14,4.38
1040,4.14,4.37
1041,4.14,4.37
1042,4.14,4.37
1043,4.14,4.36
1044,4.14,4.36
1045,4.14,4.36
1046,4.14,4.35
1047,4.14,4.35
1049,4.14,4.35
1050,4.14,4.35
1051,4.14,4.35
1052,4.14,4.35
1053,4.14,4.34
1054,4.14,4.34
1055,4.14,4.34
1056,4.14,4.33
1058,4.14,4.33
1059,4.14,4.33
1060,4.14,4.32
1061,4.14,4.32
1062,4.14,4.32
1063,4.14,4.32
1064,4.14,4.32
1067,4.14,4.31
1068,4.14,4.31
1069,4.14,4.31
1070,4.14,4.31
1071,4.14,4.30
1072,4.14,4.30
1073,4.14,4.30
1074,4.14,4.30
1076,4.13,4.30
1077,4.13,4.29
1078,4.14,4.29
1079,4.14,4.29
1080,4.14,4.29
1081,4.14,4.29
1082,4.14,4.29
1083,4.14,4.29
1085,4.14,4.28
1086,4.14,4.28
1087,4.13,4.28
1088,4.14,4.28
1089,4.13,4.28
1090,4.13,4.28
1091,4.13,4.28
1093,4.14,4.27
1094,4.14,4.27
1095,4.13,4.27
1096,4.13,4.27
1097,4.14,4.27
1098,4.13,4.27
1099,4.14,4.27
1100,4.13,4.27
1102,4.14,4.27
1103,4.14,4.26
1104,4.14,4.26
1105,4.13,4.26
1106,4.13,4.26
1107,4.14,4.26
1108,4.14,4.26
1110,4.14,4.26
1112,4.14,4.26
1113,4.13,4.26
1114,4.14,4.26
1115,4.14,4.26
1116,4.14,4.26
1117,4.14,4.26
1118,4.14,4.26
1120,4.13,4.26
1121,4.14,4.26
1122,4.13,4.26
1123,4.14,4.26
1124,4.14,4.26
1125,4.14,4.26
1126,4.13,4.26
1128,4.14,4.26
1129,4.13,4.26
1130,4.13,4.26
1131,4.14,4.26
1132,4.14,4.26
1133,4.13,4.26
1134,4.13,4.26
1135,4.14,4.26
1137,4.14,4.26
1138,4.14,4.26
1139,4.14,4.26
1140,4.14,4.26
1141,4.14,4.26
1142,4.14,4.26
1143,4.13,4.26
1145,4.13,4.26
1146,4.13,4.26
1147,4.13,4.26
1148,4.13,4.26
1149,4.13,4.26
1150,4.14,4.27
1152,4.14,4.27
1153,4.14,4.27
1155,4.13,4.27
1156,4.13,4.27
1157,4.14,4.27
1158,4.13,4.27
1159,4.13,4.27
1160,4.13,4.27
1161,4.13,4.27
1163,4.13,4.27
1164,4.13,4.27
1165,4.13,4.27
1166,4.13,4.27
1167,4.13,4.27
1168,4.13,4.28
1169,4.13,4.27
1170,4.13,4.27
1172,4.13,4.27
1173,4.13,4.28
1174,4.13,4.27
1175,4.13,4.28
1176,4.13,4.27
1177,4.13,4.28
1178,4.13,4.28
1179,4.13,4.27
1181,4.13,4.27
1182,4.13,4.27
1183,4.13,4.27
1184,4.13,4.27
1185,4.13,4.27
1186,4.13,4.27
1187,4.13,4.26
1189,4.13,4.26
1190,4.13,4.26
1191,4.13,4.26
1192,4.13,4.26
1193,4.13,4.26
1195,4.13,4.26
1196,4.13,4.26
1197,4.13,4.26
1199,4.13,4.26
1200,4.13,4.26
1201,4.13,4.26
1202,4.13,4.26
1203,4.13,4.26
1204,4.13,4.26
1205,4.13,4.26
1206,4.13,4.26
1208,4.13,4.27
1209,4.13,4.27
1210,4.13,4.27
1211,4.13,4.27
1212,4.13,4.27
1213,4.13,4.27
1214,4.13,4.27
1216,4.13,4.28
1217,4.13,4.28
1218,4.13,4.28
1219,4.13,4.28
1220,4.13,4.28
1221,4.13,4.28
1222,4.13,4.29
1224,4.13,4.29
1225,4.13,4.29
1226,4.13,4.29
1227,4.13,4.30
1228,4.13,4.30
1229,4.13,4.30
1230,4.13,4.31
1231,4.13,4.31
1233,4.13,4.31
1234,4.13,4.31
1235,4.13,4.32
1236,4.13,4.32
1238,4.13,4.32
1239,4.13,4.33
1240,4.13,4.33
1242,4.13,4.33
1243,4.13,4.33
1244,4.13,4.34
1245,4.13,4.34
1246,4.13,4.35
1247,4.12,4.35
1248,4.12,4.35
1249,4.12,4.35
1251,4.12,4.35
1252,4.12,4.36
1253,4.13,4.36
1254,4.12,4.36
1255,4.12,4.36
1256,4.12,4.37
1257,4.12,4.37
1259,4.12,4.37
1260,4.12,4.38
1261,4.12,4.38
1262,4.12,4.38
1263,4.12,4.38
1264,4.12,4.39
1265,4.12,4.39
1266,4.12,4.39
1268,4.12,4.40
1269,4.12,4.40
1270,4.12,4.40
1271,4.12,4.41
1272,4.12,4.41
1273,4.12,4.41
1274,4.12,4.41
1275,4.12,4.41
1277,4.12,4.42
1278,4.12,4.42
1280,4.12,4.42
1281,4.12,4.43
1282,4.12,4.43
1283,4.12,4.43
1284,4.12,4.43
1285,4.12,4.43
1287,4.12,4.44
1288,4.11,4.44
1289,4.11,4.44
1290,4.11,4.45
1291,4.11,4.45
1292,4.11,4.45
1293,4.11,4.45
1294,4.11,4.45
1296,4.11,4.46
1297,4.11,4.46
1298,4.11,4.46
1299,4.11,4.47
1300,4.11,4.47
1301,4.11,4.47
1302,4.11,4.47
1304,4.11,4.48
1305,4.11,4.48
1306,4.11,4.48
1307,4.11,4.48
1308,4.11,4.48
1309,4.11,4.49
1310,4.11,4.49
1311,4.11,4.49
1313,4.11,4.49
1314,4.11,4.50
1315,4.11,4.50
1316,4.11,4.50
1317,4.11,4.50
1318,4.11,4.50
1319,4.11,4.51
1320,4.11,4.51
1323,4.11,4.51
1324,4.11,4.52
1325,4.11,4.52
1326,4.11,4.52
1327,4.11,4.53
1328,4.11,4.53
1329,4.11,4.53
1331,4.11,4.54
1332,4.11,4.54
1333,4.11,4.54
1334,4.11,4.55
1335,4.11,4.55
1336,4.11,4.55
1337,4.11,4.56
1339,4.11,4.56
1340,4.11,4.56
1341,4.11,4.57
1342,4.11,4.57
1343,4.11,4.57
1344,4.11,4.57
1345,4.11,4.57
1346,4.11,4.57
1348,4.11,4.58
1349,4.11,4.58
1350,4.11,4.58
1351,4.11,4.58
1352,4.11,4.58
1353,4.11,4.59
1354,4.11,4.59
1356,4.11,4.59
1357,4.11,4.59
1358,4.10,4.59
1359,4.10,4.60
1360,4.11,4.60
1361,4.10,4.60
1362,4.10,4.60
1363,4.10,4.60
1366,4.10,4.60
1367,4.10,4.60
1368,4.10,4.60
1369,4.10,4.61
1370,4.10,4.61
1371,4.10,4.61
1372,4.10,4.61
1373,4.10,4.61
1375,4.10,4.61
1376,4.10,4.61
1377,4.10,4.61
1378,4.10,4.61
1379,4.10,4.61
1380,4.10,4.62
1381,4.10,4.62
1382,4.10,4.62
1384,4.10,4.62
1385,4.10,4.62
1386,4.10,4.63
1387,4.10,4.63
1388,4.10,4.63
1389,4.10,4.63
1390,4.10,4.63
1391,4.10,4.64
1393,4.10,4.64
1394,4.10,4.64
1395,4.10,4.64
1396,4.10,4.65
1397,4.10,4.65
1398,4.10,4.65
1399,4.10,4.65
1400,4.10,4.66
1402,4.10,4.66
1403,4.10,4.66
1404,4.10,4.66
1405,4.10,4.67
1406,4.10,4.67
1408,4.10,4.67
1409,4.10,4.68
1410,4.10,4.68
1412,4.10,4.68
1413,4.10,4.69
1414,4.10,4.69
1415,4.10,4.69
1416,4.10,4.69
1417,4.10,4.70
1418,4.10,4.70
1419,4.10,4.70
1421,4.10,4.70
1422,4.10,4.71
1423,4.10,4.71
1424,4.10,4.71
1425,4.10,4.71
1426,4.10,4.72
1427,4.10,4.72
1428,4.10,4.72
1430,4.09,4.73
1431,4.09,4.73
1432,4.09,4.73
1433,4.09,4.73
1434,4.09,4.73
1435,4.09,4.73
1436,4.09,4.74
1437,4.09,4.74
1439,4.09,4.74
1440,4.09,4.74
1441,4.09,4.74
1442,4.09,4.74
1443,4.09,4.74
1444,4.09,4.74
1445,4.09,4.74
1446,4.09,4.74
1448,4.09,4.74
1449,4.09,4.74
1451,4.09,4.74
1452,4.09,4.74
1453,4.09,4.74
1454,4.09,4.74
1455,4.09,4.74
1456,4.09,4.74
1457,4.09,4.74
1459,4.09,4.74
1460,4.09,4.74
1461,4.09,4.74
1462,4.09,4.74
1463,4.09,4.74
1464,4.09,4.73
1465,4.09,4.73
1467,4.09,4.73
1468,4.09,4.73
1469,4.09,4.73
1470,4.09,4.73
1471,4.08,4.73
1472,4.08,4.73
1473,4.08,4.73
1474,4.08,4.72
1476,4.08,4.72
1477,4.08,4.72
1478,4.08,4.72
1479,4.08,4.72
1480,4.08,4.72
1481,4.08,4.72
1482,4.08,4.72
1483,4.08,4.72
1485,4.08,4.72
1486,4.08,4.72
1487,4.08,4.72
1488,4.09,4.71
1489,4.09,4.71
1490,4.09,4.71
1491,4.09,4.71
1492,4.09,4.71
1495,4.09,4.71
1496,4.09,4.71
1497,4.09,4.71
1498,4.09,4.71
1499,4.09,4.70
1500,4.08,4.70
1501,4.09,4.70
1502,4.08,4.70
1503,4.08,4.70
1505,4.09,4.70
1506,4.08,4.70
1507,4.08,4.70
1508,4.08,4.70
1509,4.08,4.70
1510,4.08,4.70
1511,4.08,4.70
1512,4.08,4.70
1514,4.08,4.70
1515,4.08,4.70
1516,4.08,4.70
1517,4.08,4.69
1518,4.08,4.69
1519,4.08,4.69
1520,4.08,4.69
1521,4.08,4.69
1522,4.08,4.69
1524,4.08,4.69
1525,4.08,4.69
1526,4.08,4.69
1527,4.08,4.69
1528,4.08,4.69
1529,4.08,4.69
1530,4.08,4.69
1531,4.08,4.69
1533,4.08,4.69
1534,4.08,4.69
1536,4.08,4.69
1537,4.08,4.69
1538,4.08,4.69
1539,4.08,4.69
1540,4.08,4.69
1541,4.08,4.69
1542,4.08,4.69
1544,4.08,4.69
1545,4.08,4.69
1546,4.08,4.69
1547,4.08,4.69
1548,4.08,4.69
1549,4.08,4.69
1550,4.08,4.69
1551,4.08,4.69
1553,4.08,4.69
1554,4.08,4.69
1555,4.08,4.69
1556,4.08,4.69
1557,4.08,4.69
1558,4.08,4.69
1559,4.08,4.69
1560,4.08,4.69
1562,4.08,4.69
1563,4.08,4.69
1564,4.08,4.69
1565,4.08,4.69
1566,4.08,4.69
1567,4.08,4.69
1568,4.08,4.69
1569,4.08,4.69
1570,4.08,4.69
1572,4.08,4.69
1573,4.08,4.70
1574,4.08,4.70
1575,4.08,4.70
1576,4.08,4.69
1577,4.08,4.70
1579,4.08,4.69
1580,4.08,4.69
1582,4.08,4.70
1583,4.08,4.70
1584,4.08,4.70
1585,4.08,4.70
1586,4.08,4.70
1587,4.08,4.70
1588,4.08,4.70
1589,4.08,4.70
1590,4.08,4.70
1592,4.08,4.70
1593,4.08,4.70
1594,4.08,4.70
1595,4.08,4.70
1596,4.08,4.70
1597,4.08,4.70
1598,4.08,4.70
1599,4.08,4.70
1601,4.08,4.70
1602,4.08,4.70
1603,4.08,4.70
1604,4.08,4.70
1605,4.08,4.70
1606,4.08,4.70
1607,4.08,4.70
1608,4.08,4.70
1609,4.08,4.70
1611,4.08,4.70
1612,4.07,4.70
1613,4.08,4.70
1614,4.08,4.70
1615,4.07,4.70
1616,4.08,4.70
1617,4.07,4.70
1618,4.08,4.70
1620,4.07,4.70
1622,4.07,4.69
1623,4.06,4.66
1624,4.05,4.64
1625,4.03,4.62
1626,4.03,4.62
1627,4.03,4.62
1628,4.03,4.62
1629,4.04,4.59
1631,4.03,4.56
1632,4.00,4.52
1633,3.99,4.50
1634,3.98,4.47
1635,3.97,4.44
1636,3.94,4.39
1637,3.91,4.35
1638,3.88,4.29
1640,3.85,4.24
1641,3.81,4.21
1642,3.79,4.20
1643,3.78,4.20
1644,3.79,4.20
1645,3.80,4.20
1646,3.80,4.17
1647,3.78,4.14
1649,3.76,4.11
1650,3.75,4.10
1651,3.73,4.07
1652,3.72,4.03
1653,3.70,4.00
1654,3.67,3.96
1655,3.64,3.92
1656,3.61,3.90
1658,3.60,3.89
1659,3.59,3.90
1660,3.60,3.91
1661,3.62,3.93
1662,3.64,3.92
1664,3.64,3.91
1665,3.63,3.89
1666,3.62,3.88
1668,3.62,3.86
1669,3.61,3.84
1670,3.60,3.82
1671,3.58,3.79
1672,3.56,3.76
1673,3.54,3.74
1674,3.52,3.73
1675,3.52,3.74
1677,3.54,3.76
1678,3.56,3.79
1679,3.59,3.80
1680,3.60,3.79
1681,3.60,3.78
1682,3.60,3.77
1683,3.60,3.76
1684,3.59,3.75
1686,3.59,3.73
1687,3.57,3.71
1688,3.56,3.70
1689,3.54,3.67
1690,3.53,3.66
1691,3.52,3.67
1692,3.53,3.69
1693,3.56,3.71
1695,3.59,3.73
1696,3.61,3.74
1697,3.62,3.74
1698,3.62,3.73
1699,3.61,3.72
1700,3.61,3.71
1701,3.61,3.70
1702,3.60,3.69
1704,3.59,3.67
1705,3.57,3.65
1707,3.55,3.63
1708,3.54,3.63
1709,3.55,3.65
1710,3.57,3.67
1711,3.59,3.70
1712,3.63,3.72
1714,3.64,3.72
1715,3.64,3.71
1716,3.64,3.70
1717,3.63,3.69
1718,3.61,3.67
1719,3.60,3.65
1720,3.58,3.63
1722,3.57,3.61
1723,3.55,3.59
1724,3.53,3.58
1725,3.52,3.59
1726,3.54,3.61
1727,3.56,3.64
1728,3.59,3.67
1729,3.61,3.68
1731,3.62,3.67
1732,3.62,3.66
1733,3.61,3.65
1734,3.60,3.63
1735,3.58,3.62
1736,3.57,3.60
1737,3.55,3.58
1738,3.54,3.57
1740,3.52,3.55
1741,3.51,3.55
1742,3.51,3.57
1743,3.53,3.60
1744,3.57,3.63
1745,3.59,3.65
1746,3.61,3.65
1747,3.61,3.64
1750,3.60,3.63
1751,3.59,3.62
1752,3.58,3.60
1753,3.57,3.59
1754,3.55,3.57
1755,3.54,3.55
1756,3.52,3.54
1757,3.51,3.53
1759,3.51,3.55
1760,3.52,3.57
1761,3.55,3.61
1762,3.58,3.63
1763,3.60,3.64
1764,3.61,3.63
1765,3.61,3.63
1766,3.60,3.62
1768,3.59,3.60
1769,3.58,3.59
1770,3.57,3.58
1771,3.55,3.56
1772,3.53,3.54
1773,3.52,3.53
1774,3.51,3.53
1775,3.52,3.55
1777,3.54,3.58
1778,3.57,3.61
1779,3.60,3.63
1780,3.61,3.63
1781,3.61,3.62
1782,3.60,3.61
1783,3.60,3.60
1785,3.58,3.58
1786,3.57,3.57
1787,3.56,3.56
1788,3.54,3.54
1789,3.53,3.53
1790,3.51,3.52
1792,3.51,3.54
1793,3.53,3.56
1795,3.56,3.60
1796,3.59,3.62
1797,3.61,3.62
1798,3.61,3.62
1799,3.61,3.61
1800,3.60,3.60
1801,3.59,3.59
1802,3.58,3.57
1804,3.56,3.56
1805,3.55,3.54
1806,3.54,3.53
1807,3.52,3.52
1808,3.51,3.53
1809,3.52,3.55
1810,3.55,3.58
1811,3.58,3.61
1813,3.60,3.62
1814,3.61,3.62
1815,3.61,3.61
1816,3.61,3.61
1817,3.60,3.59
1818,3.59,3.58
1819,3.57,3.56
1820,3.56,3.55
1822,3.55,3.54
1823,3.53,3.52
1824,3.51,3.52
1825,3.52,3.54
1826,3.54,3.57
1827,3.57,3.60
1828,3.60,3.62
1829,3.61,3.62
1831,3.62,3.62
1832,3.62,3.61
1833,3.61,3.60
1835,3.60,3.59
1836,3.58,3.57
1837,3.57,3.56
1838,3.56,3.54
1839,3.54,3.53
1841,3.52,3.52
1842,3.52,3.53
1843,3.53,3.55
1844,3.56,3.58
1845,3.59,3.61
1846,3.61,3.62
1847,3.62,3.62
1848,3.62,3.61
1850,3.62,3.60
1851,3.61,3.59
1852,3.59,3.58
1853,3.58,3.56
1854,3.57,3.55
1855,3.55,3.54
1856,3.53,3.52
1857,3.52,3.52
1859,3.52,3.54
1860,3.54,3.57
1861,3.58,3.60
1862,3.61,3.62
1863,3.62,3.62
1864,3.62,3.62
1865,3.62,3.61
1866,3.61,3.60
1868,3.60,3.58
1869,3.59,3.57
1870,3.57,3.56
1871,3.56,3.54
1872,3.54,3.53
1873,3.52,3.52
1874,3.52,3.53
1875,3.53,3.55
1878,3.56,3.59
1879,3.59,3.61
1880,3.61,3.62
1881,3.62,3.62
1882,3.62,3.61
1883,3.61,3.60
1884,3.60,3.59
1886,3.59,3.57
1887,3.57,3.56
1888,3.56,3.54
1889,3.54,3.53
1890,3.53,3.51
1891,3.51,3.52
1892,3.52,3.54
1893,3.54,3.57
1895,3.57,3.60
1896,3.60,3.61
1897,3.61,3.61
1898,3.61,3.61
1899,3.61,3.60
1900,3.60,3.59
1901,3.59,3.57
1902,3.57,3.56
1904,3.56,3.55
1905,3.55,3.54
1906,3.53,3.52
1907,3.51,3.51
1908,3.51,3.52
1909,3.53,3.55
1910,3.56,3.58
1911,3.59,3.60
1913,3.61,3.61
1914,3.61,3.61
1915,3.61,3.60
1916,3.60,3.59
1917,3.59,3.58
1918,3.58,3.56
1920,3.57,3.55
1921,3.55,3.54
1923,3.54,3.52
1924,3.52,3.51
1925,3.51,3.51
1926,3.52,3.53
1927,3.54,3.56
1928,3.58,3.59
1929,3.60,3.61
1930,3.61,3.61
1932,3.61,3.60
1933,3.61,3.59
1934,3.60,3.58
1935,3.58,3.57
1936,3.57,3.55
1937,3.56,3.54
1938,3.54,3.53
1939,3.53,3.51
1941,3.51,3.51
1942,3.51,3.52
1943,3.53,3.55
1944,3.56,3.58
1945,3.59,3.60
1946,3.61,3.60
1947,3.61,3.60
1948,3.61,3.59
1950,3.60,3.58
1951,3.59,3.57
1952,3.58,3.56
1953,3.56,3.54
1954,3.55,3.53
1955,3.53,3.51
1956,3.51,3.51
1957,3.51,3.51
1959,3.52,3.53
1960,3.54,3.56
1961,3.57,3.59
1963,3.60,3.60
1964,3.61,3.60
1965,3.61,3.59
1966,3.60,3.59
1967,3.59,3.57
1969,3.58,3.56
1970,3.57,3.55
1971,3.55,3.53
1972,3.54,3.52
1973,3.52,3.50
1974,3.51,3.50
1975,3.51,3.52
1976,3.53,3.55
1978,3.56,3.58
1979,3.59,3.60
1980,3.61,3.60
1981,3.61,3.60
1982,3.60,3.59
1983,3.60,3.58
1984,3.59,3.57
1985,3.57,3.55
1987,3.56,3.54
1988,3.54,3.53
1989,3.53,3.51
1990,3.51,3.50
1991,3.51,3.51
1992,3.52,3.53
1993,3.54,3.57
1994,3.58,3.59
1996,3.60,3.60
1997,3.61,3.60
1998,3.61,3.59
1999,3.60,3.58
2000,3.59,3.57
2001,3.58,3.56
2002,3.57,3.55
2003,3.55,3.53
2006,3.54,3.52
2007,3.52,3.50
2008,3.51,3.50
2009,3.51,3.52
2010,3.53,3.55
2011,3.56,3.58
2012,3.59,3.60
2013,3.61,3.60
2015,3.61,3.60
2016,3.60,3.58
2017,3.60,3.57
2018,3.59,3.56
2019,3.57,3.55
2020,3.56,3.54
2021,3.54,3.52
2022,3.53,3.51
2024,3.51,3.50
2025,3.51,3.50
2026,3.52,3.53
2027,3.55,3.56
2028,3.58,3.59
2029,3.60,3.60
2030,3.61,3.60
2031,3.61,3.59
2033,3.60,3.59
2034,3.59,3.57
2035,3.58,3.56
2036,3.57,3.54
2037,3.55,3.53
2038,3.54,3.52
2039,3.52,3.50
2040,3.51,3.50
2042,3.51,3.52
2043,3.53,3.55
2044,3.57,3.58
2045,3.60,3.60
2046,3.61,3.60
2048,3.61,3.59
2049,3.61,3.59
2050,3.60,3.58
2052,3.59,3.56
2053,3.58,3.55
2054,3.56,3.54
2055,3.55,3.52
2056,3.53,3.51
2057,3.51,3.50
2058,3.51,3.51
2059,3.53,3.54
2061,3.55,3.56
2062,3.59,3.59
2063,3.61,3.60
2064,3.61,3.60
2065,3.61,3.59
2066,3.60,3.58
2067,3.59,3.57
2068,3.58,3.56
2070,3.57,3.54
2071,3.55,3.53
2072,3.54,3.52
2073,3.52,3.50
2074,3.51,3.50
2075,3.52,3.52
2076,3.54,3.55
2077,3.57,3.59
2079,3.60,3.60
2080,3.61,3.60
2081,3.61,3.59
2082,3.61,3.59
2083,3.60,3.57
2084,3.59,3.56
2085,3.57,3.54
2086,3.56,3.54
2088,3.54,3.52
2089,3.53,3.51
2091,3.51,3.50
2092,3.51,3.51
2093,3.53,3.54
2094,3.55,3.57
2095,3.59,3.59
2096,3.60,3.60
2098,3.61,3.59
2099,3.61,3.59
2100,3.60,3.58
2101,3.59,3.56
2102,3.58,3.55
2103,3.56,3.54
2104,3.55,3.53
2105,3.53,3.51
2107,3.52,3.50
2108,3.51,3.50
2109,3.52,3.52
2110,3.54,3.56
2111,3.58,3.59
2112,3.61,3.61
2113,3.62,3.61
2114,3.62,3.60
2116,3.62,3.60
2117,3.62,3.60
2118,3.61,3.59
2119,3.61,3.58
2120,3.59,3.57
2121,3.58,3.56
2122,3.57,3.54
2123,3.55,3.54
2125,3.56,3.56
2126,3.58,3.59
2127,3.61,3.63
2128,3.65,3.66
2129,3.68,3.67
2130,3.69,3.67
2131,3.69,3.66
2132,3.69,3.67
2135,3.69,3.67
2136,3.69,3.66
2137,3.68,3.65
2138,3.66,3.63
2139,3.65,3.61
2140,3.63,3.60
2141,3.62,3.61
2143,3.64,3.64
2144,3.67,3.67
2145,3.70,3.70
2146,3.73,3.72
2147,3.74,3.72
2148,3.74,3.71
2149,3.73,3.70
2150,3.72,3.69
2152,3.70,3.67
2153,3.69,3.65
2154,3.67,3.63
2155,3.65,3.61
2156,3.63,3.59
2157,3.61,3.59
2158,3.61,3.61
2160,3.62,3.63
2161,3.65,3.67
2162,3.68,3.69
2163,3.70,3.69
2164,3.70,3.69
2165,3.69,3.67
2166,3.68,3.66
2167,3.66,3.64
2169,3.64,3.63
2170,3.63,3.61
2171,3.61,3.59
2172,3.59,3.57
2173,3.57,3.56
2174,3.55,3.56
2176,3.55,3.57
2177,3.57,3.60
2179,3.60,3.63
2180,3.61,3.63
2181,3.62,3.63
2182,3.61,3.62
2183,3.60,3.61
2184,3.59,3.59
2185,3.58,3.58
2186,3.56,3.56
2188,3.55,3.55
2189,3.53,3.53
2190,3.51,3.52
2191,3.49,3.50
2192,3.48,3.51
2193,3.48,3.52
2194,3.51,3.55
2195,3.53,3.56
2197,3.53,3.56
2198,3.53,3.56
2199,3.53,3.55
2200,3.52,3.53
2201,3.51,3.52
2202,3.50,3.51
2203,3.48,3.50
2204,3.47,3.48
2206,3.46,3.47
2207,3.44,3.46
2208,3.42,3.45
2209,3.40,3.45
2210,3.40,3.47
2211,3.41,3.49
2212,3.42,3.49
2213,3.42,3.49
2215,3.42,3.48
2216,3.41,3.47
2217,3.40,3.46
2219,3.39,3.45
2220,3.38,3.43
2221,3.37,3.42
2222,3.35,3.40
2223,3.34,3.38
2225,3.32,3.37
2226,3.31,3.37
2227,3.32,3.39
2228,3.34,3.41
2229,3.36,3.43
2230,3.37,3.42
2231,3.38,3.42
2233,3.38,3.41
2234,3.37,3.40
2235,3.36,3.38
2236,3.36,3.37
2237,3.35,3.36
2238,3.33,3.34
2239,3.32,3.33
2240,3.31,3.31
2242,3.30,3.32
2243,3.30,3.34
2244,3.33,3.38
2245,3.35,3.40
2246,3.37,3.40
2247,3.38,3.41
2248,3.39,3.40
2249,3.38,3.39
2251,3.38,3.38
2252,3.37,3.37
2253,3.36,3.36
2254,3.35,3.34
2255,3.34,3.33
2256,3.33,3.32
2257,3.31,3.32
2259,3.31,3.34
2260,3.33,3.37
2262,3.37,3.40
2263,3.39,3.42
2264,3.40,3.42
2265,3.41,3.42
2266,3.41,3.41
2267,3.41,3.40
2269,3.40,3.39
2270,3.39,3.38
2271,3.38,3.37
2272,3.37,3.36
2273,3.36,3.35
2274,3.35,3.34
2275,3.34,3.35
2276,3.35,3.38
2278,3.38,3.42
2279,3.41,3.44
2280,3.43,3.45
2281,3.44,3.45
2282,3.44,3.44
2283,3.44,3.43
2284,3.44,3.42
2285,3.43,3.41
2287,3.42,3.40
2288,3.41,3.39
2289,3.39,3.38
2290,3.38,3.37
2291,3.37,3.37
2292,3.37,3.39
2293,3.40,3.43
2294,3.43,3.46
2296,3.45,3.47
2297,3.46,3.47
2298,3.46,3.47
2299,3.46,3.46
2300,3.46,3.45
2301,3.45,3.44
2302,3.44,3.43
2305,3.43,3.42
2306,3.42,3.40
2307,3.40,3.39
2308,3.39,3.38
2309,3.38,3.39
2310,3.39,3.42
2311,3.42,3.45
2312,3.44,3.47
2314,3.46,3.47
2315,3.46,3.47
2316,3.46,3.46
2317,3.45,3.45
2318,3.45,3.44
2319,3.44,3.42
2320,3.43,3.41
2322,3.41,3.40
2323,3.40,3.39
2324,3.38,3.38
2325,3.37,3.38
2326,3.37,3.40
2327,3.40,3.43
2328,3.42,3.45
2329,3.43,3.45
2331,3.44,3.45
2332,3.44,3.44
2333,3.43,3.43
2334,3.43,3.42
2335,3.42,3.41
2336,3.41,3.40
2337,3.39,3.39
2338,3.38,3.38
2340,3.37,3.36
2341,3.35,3.35
2342,3.35,3.36
2343,3.35,3.39
2344,3.37,3.41
2345,3.39,3.42
2347,3.39,3.41
2349,3.39,3.41
2350,3.39,3.40
2351,3.38,3.38
2352,3.37,3.37
2353,3.36,3.36
2354,3.35,3.35
2355,3.33,3.34
2356,3.32,3.32
2358,3.31,3.31
2359,3.30,3.32
2360,3.32,3.36
2361,3.35,3.39
2362,3.37,3.40
2363,3.39,3.41
2364,3.39,3.41
2365,3.39,3.40
2367,3.39,3.39
2368,3.38,3.38
2369,3.37,3.37
2370,3.36,3.36
2371,3.35,3.34
2372,3.34,3.33
2373,3.33,3.33
2374,3.33,3.34
2376,3.34,3.37
2377,3.38,3.41
2378,3.41,3.44
2379,3.43,3.45
2380,3.45,3.45
2381,3.45,3.44
2382,3.45,3.44
2384,3.45,3.43
2385,3.44,3.42
2386,3.43,3.41
2387,3.42,3.39
2388,3.41,3.39
2390,3.40,3.38
2391,3.39,3.38
2392,3.40,3.41
2394,3.43,3.45
2395,3.46,3.48
2396,3.48,3.49
2397,3.50,3.49
2398,3.51,3.49
2399,3.51,3.49
2400,3.51,3.48
2402,3.50,3.47
2403,3.49,3.46
2404,3.48,3.45
2405,3.47,3.44
2406,3.46,3.43
2407,3.44,3.43
2408,3.45,3.45
2409,3.47,3.48
2411,3.50,3.51
2412,3.53,3.53
2413,3.55,3.54
2414,3.56,3.54
2415,3.56,3.53
2416,3.55,3.53
2417,3.54,3.51
2418,3.53,3.51
2420,3.52,3.49
2421,3.51,3.48
2422,3.50,3.47
2423,3.48,3.46
2424,3.48,3.48
2425,3.49,3.50
2426,3.52,3.53
2427,3.56,3.56
2429,3.58,3.57
2430,3.59,3.57
2432,3.59,3.57
2433,3.59,3.55
2434,3.58,3.55
2435,3.57,3.53
2436,3.55,3.52
2437,3.54,3.51
2439,3.52,3.50
2440,3.51,3.48
2441,3.50,3.49
2442,3.51,3.51
2443,3.53,3.54
2444,3.57,3.57
2445,3.59,3.59
2446,3.61,3.59
2448,3.61,3.58
2449,3.60,3.57
2450,3.59,3.56
2451,3.58,3.55
2452,3.57,3.54
2453,3.55,3.52
2454,3.54,3.50
2455,3.52,3.50
2457,3.51,3.49
2458,3.51,3.50
2459,3.53,3.53
2460,3.56,3.56
2461,3.59,3.58
2462,3.60,3.59
2463,3.61,3.59
2464,3.60,3.58
2466,3.60,3.57
2467,3.59,3.56
2468,3.57,3.54
2469,3.56,3.53
2470,3.54,3.52
2471,3.53,3.51
2472,3.51,3.49
2473,3.50,3.49
2476,3.51,3.50
2477,3.51,3.51
2478,3.52,3.53
2479,3.53,3.53
2480,3.54,3.53
2481,3.53,3.52
2482,3.52,3.51
2483,3.51,3.50
2485,3.50,3.49
2486,3.48,3.48
2487,3.47,3.47
2488,3.46,3.45
2489,3.44,3.44
2490,3.42,3.44
2491,3.42,3.44
2493,3.43,3.46
2494,3.45,3.49
2495,3.48,3.51
2496,3.49,3.51
2497,3.49,3.50
2498,3.49,3.50
2499,3.49,3.49
2500,3.48,3.48
2502,3.48,3.46
2503,3.46,3.45
2504,3.45,3.44
2505,3.44,3.42
2506,3.42,3.41
2507,3.42,3.42
2508,3.43,3.45
2509,3.46,3.48
2511,3.49,3.51
2512,3.51,3.52
2513,3.53,3.53
2514,3.53,3.53
2515,3.53,3.51
2516,3.53,3.50
2518,3.52,3.49
2519,3.51,3.48
2521,3.50,3.48
2522,3.49,3.46
2523,3.48,3.45
2524,3.47,3.45
2525,3.47,3.47
2526,3.49,3.50
2527,3.52,3.54
2528,3.55,3.56
2530,3.57,3.57
2531,3.58,3.56
2532,3.58,3.55
2533,3.58,3.54
2534,3.57,3.53
2535,3.55,3.53
2536,3.54,3.51
2537,3.53,3.50
2539,3.51,3.49
2540,3.50,3.48
2541,3.51,3.50
2542,3.53,3.53
2543,3.56,3.56
2544,3.60,3.59
2545,3.62,3.60
2546,3.63,3.60
2548,3.63,3.59
2549,3.63,3.60
2550,3.63,3.59
2551,3.62,3.58
2552,3.61,3.57
2553,3.60,3.56
2554,3.58,3.54
2555,3.57,3.53
2557,3.57,3.54
2558,3.58,3.57
2560,3.61,3.60
2561,3.65,3.64
2562,3.68,3.65
2563,3.69,3.65
2564,3.70,3.65
2565,3.69,3.65
2567,3.70,3.65
2568,3.69,3.65
2569,3.68,3.63
2570,3.67,3.62
2571,3.66,3.61
2572,3.64,3.59
2573,3.63,3.59
2574,3.64,3.61
2576,3.66,3.64
2577,3.69,3.68
2578,3.72,3.70
2579,3.75,3.71
2580,3.76,3.73
2581,3.79,3.76
2582,3.83,3.79
2583,3.87,3.82
2585,3.91,3.86
2586,3.94,3.89
2587,3.99,3.92
2588,4.03,3.95
2589,4.07,3.99
2590,4.11,4.02
2591,4.15,4.06
2593,4.19,4.09
2594,4.23,4.13
2595,4.27,4.16
2596,4.31,4.19
2597,4.35,4.22
2598,4.38,4.25
2599,4.42,4.28
2600,4.45,4.31
2603,4.48,4.34
2604,4.51,4.36
2605,4.54,4.38
2606,4.56,4.40
2607,4.58,4.43
2608,4.61,4.44
2609,4.63,4.46
2610,4.64,4.48
2612,4.65,4.50
2613,4.66,4.51
2614,4.67,4.53
2615,4.68,4.54
2616,4.68,4.55
2617,4.68,4.56
2618,4.68,4.56
2619,4.68,4.56
2621,4.68,4.57
2622,4.67,4.57
2623,4.66,4.57
2624,4.65,4.57
2625,4.65,4.57
2626,4.64,4.57
2627,4.62,4.57
2628,4.61,4.57
2630,4.60,4.57
2631,4.59,4.57
2632,4.58,4.57
2633,4.57,4.57
2634,4.56,4.57
2635,4.54,4.56
2636,4.53,4.56
2638,4.52,4.56
2639,4.51,4.56
2640,4.50,4.56
2641,4.48,4.55
2642,4.47,4.55
2643,4.46,4.55
2644,4.45,4.55
2646,4.44,4.55
2648,4.43,4.55
2649,4.42,4.55
2650,4.41,4.55
2651,4.40,4.56
2652,4.40,4.56
2653,4.39,4.56
2654,4.38,4.56
2655,4.37,4.56
2657,4.37,4.56
2658,4.36,4.56
2659,4.36,4.56
2660,4.35,4.57
2661,4.35,4.57
2662,4.35,4.57
2663,4.34,4.57
2665,4.33,4.57
2666,4.33,4.57
2667,4.33,4.58
2668,4.32,4.58
2669,4.32,4.58
2670,4.32,4.59
2671,4.31,4.59
2672,4.31,4.59
2674,4.31,4.60
2675,4.31,4.60
2676,4.30,4.60
2677,4.30,4.61
2678,4.30,4.61
2679,4.30,4.61
2680,4.30,4.62
2681,4.30,4.62
2683,4.29,4.63
2684,4.29,4.63
2685,4.29,4.64
2686,4.29,4.64
2688,4.29,4.64
2689,4.29,4.65
2690,4.29,4.65
2691,4.29,4.66
2693,4.29,4.66
2694,4.28,4.66
2695,4.28,4.67
2696,4.28,4.67
2697,4.28,4.68
2698,4.28,4.68
2699,4.28,4.69
2700,4.28,4.69
2702,4.28,4.70
2703,4.28,4.70
2704,4.27,4.70
2705,4.28,4.71
2706,4.27,4.71
2707,4.27,4.71
2708,4.27,4.72
2709,4.27,4.72
2711,4.27,4.73
2712,4.27,4.73
2713,4.27,4.73
2714,4.27,4.74
2715,4.26,4.74
2716,4.26,4.75
2717,4.26,4.75
2718,4.26,4.76
2720,4.26,4.76
2721,4.26,4.76
2722,4.26,4.77
2723,4.26,4.77
2724,4.26,4.77
2725,4.26,4.78
2726,4.25,4.78
2728,4.25,4.78
2729,4.25,4.78
2731,4.25,4.79
2732,4.25,4.79
2733,4.25,4.80
2734,4.25,4.80
2735,4.25,4.80
2736,4.25,4.81
2738,4.25,4.81
2739,4.24,4.81
2740,4.24,4.82
2741,4.24,4.82
2742,4.24,4.82
2743,4.24,4.83
2744,4.24,4.83
2745,4.24,4.83
2747,4.24,4.84
2748,4.24,4.84
2749,4.24,4.84
2750,4.24,4.85
2751,4.24,4.85
2752,4.23,4.86
2753,4.23,4.86
2754,4.23,4.86
2756,4.23,4.86
2757,4.23,4.87
2758,4.23,4.87
2759,4.23,4.87
2760,4.23,4.88
2761,4.23,4.88
2762,4.23,4.88
2763,4.22,4.89
2765,4.22,4.89
2766,4.22,4.89
2767,4.22,4.89
2768,4.22,4.89
2769,4.22,4.90
2770,4.22,4.90
2771,4.22,4.90
2772,4.22,4.90
2775,4.22,4.91
2776,4.22,4.91
2777,4.22,4.91
2778,4.22,4.91
2779,4.21,4.91
2780,4.21,4.92
2781,4.21,4.92
2782,4.21,4.92
2784,4.21,4.92
2785,4.21,4.92
2786,4.21,4.92
2787,4.21,4.92
2788,4.21,4.92
2789,4.21,4.93
2790,4.21,4.92
2791,4.21,4.93
2793,4.21,4.93
2794,4.21,4.93
2795,4.20,4.93
2796,4.20,4.93
2797,4.21,4.93
2798,4.20,4.93
2799,4.20,4.94
2800,4.20,4.94
2802,4.20,4.94
2803,4.20,4.94
2804,4.20,4.94
2805,4.20,4.94
2806,4.20,4.94
2807,4.20,4.94
2808,4.20,4.94
2809,4.20,4.94
2811,4.20,4.94
2812,4.19,4.95
2813,4.19,4.94
2814,4.19,4.95
2816,4.19,4.95
2817,4.19,4.95
2818,4.19,4.95
2819,4.19,4.95
2821,4.19,4.95
2822,4.19,4.95
2823,4.19,4.95
2824,4.19,4.95
2825,4.19,4.95
2826,4.19,4.95
2827,4.19,4.95
2829,4.19,4.95
2830,4.19,4.95
2831,4.19,4.95
2832,4.19,4.95
2833,4.19,4.95
2834,4.19,4.95
2835,4.18,4.96
2836,4.18,4.96
2838,4.18,4.96
2839,4.18,4.96
2840,4.18,4.96
2841,4.18,4.96
2842,4.18,4.95
2843,4.18,4.96
2844,4.18,4.96
2845,4.18,4.96
2847,4.18,4.96
2848,4.18,4.96
2849,4.18,4.96
2850,4.18,4.96
2851,4.18,4.96
2852,4.18,4.96
2853,4.18,4.96
2855,4.18,4.96
2856,4.18,4.96
2857,4.18,4.96
2859,4.18,4.96
2860,4.18,4.96
2861,4.18,4.96
2862,4.18,4.96
2863,4.18,4.96
2865,4.18,4.96
2866,4.18,4.96
2867,4.18,4.96
2868,4.18,4.96
2869,4.18,4.96
2870,4.18,4.96
2871,4.18,4.96
2872,4.18,4.96
2874,4.18,4.96
2875,4.18,4.96
2876,4.18,4.96
2877,4.18,4.96
2878,4.18,4.96
2879,4.18,4.96
2880,4.18,4.96
2881,4.18,4.96
2883,4.18,4.96
2884,4.18,4.96
2885,4.18,4.96
2886,4.18,4.96
2887,4.18,4.96
2888,4.17,4.96
2889,4.18,4.96
2890,4.18,4.96
2892,4.18,4.96
2893,4.18,4.96
2894,4.18,4.95
2895,4.18,4.95
2896,4.18,4.95
2897,4.18,4.95
2898,4.18,4.95
2899,4.18,4.94
2902,4.18,4.94
2903,4.18,4.94
2904,4.18,4.94
2905,4.18,4.93
2906,4.18,4.93
2907,4.17,4.93
2908,4.17,4.93
2909,4.17,4.92
2911,4.17,4.92
2912,4.17,4.92
2913,4.17,4.92
2914,4.17,4.91
2915,4.17,4.91
2916,4.17,4.91
2917,4.17,4.91
2918,4.17,4.90
2920,4.17,4.90
2921,4.17,4.90
2922,4.17,4.89
2923,4.17,4.89
2924,4.17,4.89
2925,4.17,4.89
2926,4.17,4.89
2927,4.17,4.88
2929,4.17,4.88
2930,4.17,4.88
2931,4.17,4.87
2932,4.17,4.87
2933,4.17,4.87
2934,4.17,4.86
2935,4.16,4.86
2936,4.16,4.86
2938,4.16,4.85
2939,4.16,4.85
2940,4.17,4.85
2941,4.16,4.84
2942,4.16,4.84
2944,4.16,4.83
2945,4.16,4.83
2946,4.16,4.82
2948,4.16,4.82
2949,4.16,4.82
2950,4.16,4.81
2951,4.16,4.80
2952,4.16,4.80
2953,4.16,4.80
2954,4.16,4.79
2955,4.16,4.79
2957,4.16,4.78
2958,4.16,4.78
2959,4.16,4.77
2960,4.16,4.77
2961,4.16,4.76
2962,4.15,4.76
2963,4.15,4.75
2965,4.15,4.75
2966,4.15,4.74
2967,4.15,4.74
2968,4.15,4.73
2969,4.15,4.73
2970,4.15,4.72
2971,4.15,4.71
2972,4.15,4.71
2974,4.15,4.70
2975,4.15,4.70
2976,4.15,4.69
2977,4.15,4.69
2978,4.15,4.68
2979,4.15,4.67
2980,4.15,4.67
2981,4.15,4.66
2983,4.15,4.66
2984,4.15,4.65
2985,4.14,4.65
2987,4.14,4.64
2988,4.14,4.63
2989,4.14,4.63
2990,4.14,4.62
2991,4.14,4.62
2993,4.14,4.61
2994,4.14,4.61
2995,4.14,4.60
2996,4.14,4.60
2997,4.14,4.59
2998,4.14,4.58
2999,4.14,4.58
3000,4.14,4.57
3002,4.14,4.57
3003,4.14,4.57
3004,4.14,4.56
3005,4.14,4.56
3006,4.14,4.55
3007,4.14,4.54
3008,4.13,4.54
3009,4.14,4.53
3011,4.13,4.53
3012,4.13,4.52
3013,4.13,4.52
3014,4.13,4.51
3015,4.13,4.51
3016,4.13,4.50
3017,4.13,4.50
3019,4.13,4.49
3020,4.13,4.49
3021,4.13,4.48
3022,4.13,4.48
3023,4.13,4.47
3024,4.13,4.47
3025,4.13,4.46
3026,4.13,4.46
3028,4.13,4.45
3030,4.13,4.45
3031,4.13,4.45
3032,4.13,4.44
3033,4.13,4.44
3034,4.13,4.43
3035,4.13,4.43
3036,4.13,4.42
3038,4.13,4.42
3039,4.13,4.42
3040,4.13,4.41
3041,4.13,4.41
3042,4.13,4.40
3043,4.13,4.40
3044,4.13,4.40
3046,4.13,4.39
3047,4.13,4.39
3048,4.13,4.39
3049,4.13,4.38
3050,4.13,4.38
3051,4.13,4.37
3052,4.13,4.37
3053,4.13,4.37
3055,4.13,4.36
3056,4.13,4.36
3057,4.13,4.35
3058,4.13,4.35
3059,4.13,4.35
3060,4.13,4.35
3061,4.13,4.35
3063,4.13,4.34
3064,4.13,4.34
3065,4.13,4.34
3066,4.13,4.33
3067,4.13,4.33
3068,4.13,4.33
3069,4.13,4.33
3070,4.13,4.32
3073,4.13,4.32
3074,4.13,4.32
3075,4.13,4.32
3076,4.13,4.31
3077,4.13,4.31
3078,4.13,4.31
3079,4.13,4.31
3081,4.13,4.31
3082,4.13,4.30
3083,4.13,4.30
3084,4.13,4.30
3085,4.13,4.30
3086,4.13,4.29
3087,4.13,4.29
3088,4.13,4.29
3090,4.13,4.29
3091,4.13,4.29
3092,4.13,4.29
3093,4.13,4.29
3094,4.13,4.28
3095,4.13,4.28
3096,4.13,4.28
3098,4.13,4.28
3099,4.13,4.28
3100,4.13,4.28
3101,4.13,4.28
3102,4.13,4.27
3103,4.13,4.27
3104,4.13,4.27
3105,4.13,4.27
3107,4.13,4.27
3108,4.13,4.27
3109,4.13,4.27
3110,4.13,4.27
3111,4.13,4.27
3112,4.13,4.27
3113,4.13,4.27
3116,4.13,4.27
3117,4.13,4.27
3118,4.13,4.27
3119,4.13,4.26
3120,4.13,4.26
3121,4.13,4.26
3122,4.13,4.26
3124,4.13,4.26
3125,4.13,4.26
3126,4.13,4.26
3127,4.13,4.26
3128,4.13,4.26
3129,4.13,4.26
3130,4.13,4.26
3131,4.13,4.26
3133,4.13,4.26
3134,4.13,4.26
3135,4.13,4.26
3136,4.13,4.26
3137,4.13,4.26
3138,4.13,4.26
3139,4.13,4.26
3140,4.13,4.26
3142,4.13,4.26
3143,4.13,4.26
3144,4.13,4.26
3145,4.13,4.26
3146,4.13,4.26
3147,4.13,4.26
3148,4.13,4.26
3150,4.13,4.26
3151,4.13,4.26
3152,4.13,4.26
3153,4.13,4.26
3154,4.13,4.26
3155,4.13,4.26
3156,4.13,4.26
3158,4.13,4.26
3160,4.13,4.27
3161,4.13,4.26
3162,4.13,4.27
3163,4.13,4.27
3164,4.13,4.27
3165,4.13,4.27
3166,4.13,4.27
3168,4.13,4.27
3169,4.13,4.27
3170,4.13,4.27
3171,4.13,4.27
3172,4.13,4.27
3173,4.13,4.27
3174,4.13,4.27
3176,4.13,4.27
3177,4.13,4.27
3178,4.13,4.27
3179,4.13,4.27
3180,4.13,4.27
3181,4.13,4.27
3182,4.13,4.27
3183,4.13,4.27
3185,4.13,4.27
3186,4.13,4.28
3187,4.13,4.27
3188,4.13,4.28
3189,4.13,4.28
3190,4.13,4.28
3191,4.13,4.28
3193,4.13,4.28
3194,4.13,4.28
3195,4.13,4.28
3196,4.13,4.28
3197,4.13,4.28
3198,4.13,4.28
3200,4.13,4.28
3202,4.13,4.28
3203,4.13,4.27
3204,4.13,4.27
3205,4.13,4.27
3206,4.13,4.27
3207,4.13,4.27
3208,4.13,4.27
3209,4.13,4.27
3211,4.13,4.27
3212,4.13,4.27
3213,4.13,4.27
3214,4.13,4.27
3215,4.13,4.27
3216,4.13,4.27
3217,4.13,4.28
3219,4.12,4.28
3220,4.12,4.28
3221,4.12,4.28
3222,4.12,4.28
3223,4.12,4.28
3224,4.12,4.28
3225,4.12,4.28
3226,4.12,4.29
3228,4.12,4.29
3229,4.12,4.29
3230,4.12,4.29
3231,4.12,4.29
3232,4.12,4.30
3233,4.12,4.30
3234,4.12,4.30
3235,4.12,4.30
3237,4.12,4.30
3238,4.12,4.31
3239,4.12,4.31
3240,4.12,4.31
3241,4.12,4.31
3243,4.12,4.32
3244,4.12,4.32
3246,4.12,4.32
3247,4.12,4.33
3248,4.12,4.33
3249,4.12,4.33
3250,4.12,4.34
3251,4.12,4.34
3252,4.12,4.34
3253,4.12,4.34
3255,4.12,4.35
3256,4.12,4.35
3257,4.12,4.35
3258,4.12,4.35
3259,4.12,4.35
3260,4.12,4.36
3261,4.12,4.36
3263,4.12,4.36
3264,4.12,4.37
3265,4.12,4.37
3266,4.12,4.37
3267,4.12,4.38
3268,4.12,4.38
3269,4.12,4.38
3270,4.12,4.39
3272,4.12,4.39
3273,4.11,4.39
3274,4.11,4.40
3275,4.11,4.40
3276,4.11,4.40
3277,4.11,4.41
3278,4.11,4.41
3279,4.11,4.41
3281,4.11,4.42
3282,4.11,4.42
3283,4.11,4.42
3284,4.11,4.43
3286,4.11,4.43
3287,4.11,4.43
3288,4.11,4.44
3289,4.11,4.44
3291,4.11,4.44
3292,4.11,4.45
3293,4.11,4.45
3294,4.11,4.45
3295,4.11,4.46
3296,4.11,4.46
3297,4.11,4.47
3299,4.11,4.47
3300,4.11,4.47
3301,4.11,4.48
3302,4.11,4.48
3303,4.11,4.48
3304,4.11,4.49
3305,4.11,4.49
3307,4.11,4.49
3308,4.11,4.50
3309,4.11,4.50
3310,4.11,4.50
3311,4.11,4.51
3312,4.11,4.51
3313,4.11,4.52
3314,4.11,4.52
3316,4.11,4.52
3317,4.11,4.53
3318,4.11,4.53
3319,4.11,4.54
3320,4.11,4.54
3321,4.11,4.54
3322,4.11,4.55
3324,4.11,4.55
3325,4.11,4.55
3326,4.11,4.56
3328,4.11,4.56
3329,4.11,4.57
3330,4.11,4.57
3331,4.11,4.57
3332,4.11,4.57
3334,4.11,4.58
3335,4.11,4.58
3336,4.11,4.59
3337,4.11,4.59
3338,4.11,4.60
3339,4.11,4.60
3340,4.11,4.61
3342,4.11,4.61
3343,4.11,4.62
3344,4.11,4.62
3345,4.11,4.63
3346,4.11,4.63
3347,4.11,4.64
3348,4.11,4.65
3349,4.11,4.65
3351,4.11,4.66
3352,4.11,4.66
3353,4.11,4.67
3354,4.11,4.67
3355,4.11,4.68
3356,4.11,4.69
3357,4.11,4.69
3359,4.11,4.70
3360,4.11,4.70
3361,4.11,4.71
3362,4.11,4.72
3363,4.11,4.72
3364,4.11,4.73
3365,4.11,4.74
3366,4.11,4.75
3368,4.11,4.75
3369,4.11,4.76
3371,4.11,4.77
3372,4.11,4.78
3373,4.11,4.78
3374,4.11,4.78
3375,4.11,4.79
3376,4.11,4.80
3378,4.11,4.80
3379,4.11,4.81
3380,4.11,4.81
3381,4.11,4.82
3382,4.11,4.82
3383,4.11,4.83
3384,4.11,4.83
3386,4.11,4.84
3387,4.11,4.84
3388,4.11,4.85
3389,4.11,4.85
3390,4.11,4.85
3391,4.11,4.86
3392,4.11,4.86
3393,4.11,4.86
3395,4.11,4.87
3396,4.11,4.87
3397,4.10,4.87
3398,4.10,4.88
3399,4.10,4.88
3400,4.10,4.88
3401,4.10,4.88
3402,4.10,4.89
3404,4.10,4.89
3405,4.10,4.89
3406,4.10,4.89
3407,4.10,4.89
3408,4.10,4.90
3409,4.10,4.90
3410,4.10,4.90
3411,4.10,4.90
3412,4.10,4.90
3415,4.10,4.91
3416,4.10,4.91
3417,4.10,4.91
3418,4.10,4.91
3419,4.10,4.91
3420,4.10,4.92
3421,4.10,4.92
3422,4.10,4.92
3424,4.10,4.92
3425,4.10,4.92
3426,4.10,4.92
3427,4.09,4.92
3428,4.09,4.93
3429,4.09,4.93
3430,4.09,4.93
3431,4.09,4.93
3433,4.09,4.93
3434,4.09,4.93
3435,4.09,4.93
3436,4.09,4.93
3437,4.09,4.93
3438,4.09,4.93
3439,4.09,4.94
3440,4.09,4.94
3442,4.09,4.94
3443,4.09,4.94
3444,4.09,4.94
3445,4.09,4.94
3446,4.09,4.94
3447,4.09,4.94
3448,4.09,4.94
3449,4.09,4.94
3451,4.09,4.94
3452,4.09,4.94
3453,4.09,4.94
3454,4.09,4.95
3456,4.09,4.95
3457,4.09,4.95
3458,4.09,4.95
3459,4.09,4.95
3461,4.09,4.95
3462,4.09,4.95
3463,4.09,4.95
3464,4.09,4.95
3465,4.09,4.95
3466,4.09,4.95
3467,4.09,4.95
3468,4.09,4.96
3470,4.09,4.95
3471,4.09,4.95
3472,4.09,4.95
3473,4.09,4.95
3474,4.09,4.95
3475,4.09,4.96
3476,4.09,4.96
3477,4.09,4.96
3479,4.09,4.96
3480,4.09,4.96
3481,4.09,4.96
3482,4.09,4.96
3483,4.09,4.96
3484,4.09,4.96
3485,4.09,4.96
3486,4.09,4.95
3488,4.09,4.95
3489,4.09,4.95
3490,4.09,4.95
3491,4.09,4.94
3492,4.09,4.94
3493,4.09,4.94
3494,4.09,4.93
3495,4.09,4.93
3496,4.09,4.93
3499,4.09,4.92
3500,4.09,4.92
3501,4.09,4.91
3502,4.09,4.91
3503,4.09,4.90
3504,4.09,4.90
3505,4.09,4.89
3506,4.09,4.88
3508,4.09,4.88
3509,4.09,4.87
3510,4.09,4.87
3511,4.08,4.86
3512,4.08,4.86
3513,4.08,4.85
3514,4.08,4.85
3515,4.08,4.84
3517,4.08,4.83
3518,4.08,4.83
3519,4.08,4.82
3520,4.08,4.82
3521,4.08,4.81
3522,4.07,4.81
3523,4.07,4.81
3524,4.07,4.80
3526,4.07,4.79
3527,4.07,4.79
3528,4.07,4.78
3529,4.07,4.78
3530,4.07,4.78
3531,4.07,4.78
3532,4.07,4.77
3533,4.07,4.77
3535,4.06,4.77
3536,4.06,4.76
3537,4.06,4.76
3538,4.06,4.76
3539,4.06,4.75
3540,4.06,4.75
3542,4.06,4.75
3543,4.06,4.74
3545,4.06,4.74
3546,4.06,4.74
3547,4.06,4.74
3548,4.06,4.73
3549,4.06,4.73
3550,4.06,4.73
3551,4.06,4.73
3552,4.06,4.73
3554,4.06,4.72
3555,4.06,4.72
3556,4.06,4.72
3557,4.06,4.72
3558,4.06,4.72
3559,4.06,4.72
3560,4.06,4.71
3561,4.06,4.71
3563,4.06,4.71
3564,4.06,4.71
3565,4.06,4.71
3566,4.06,4.71
3567,4.06,4.71
3568,4.06,4.71
3569,4.06,4.71
3570,4.06,4.71
3572,4.06,4.70
3573,4.06,4.70
3574,4.06,4.70
3575,4.06,4.70
3576,4.06,4.70
3577,4.06,4.70
3578,4.06,4.70
3579,4.06,4.70
3581,4.06,4.70
3582,4.06,4.70
3584,4.06,4.70
3585,4.06,4.70
3586,4.06,4.70
3587,4.06,4.70
3588,4.06,4.70
3589,4.06,4.70
3590,4.06,4.70
3592,4.06,4.70
3593,4.06,4.70
3594,4.06,4.70
3595,4.06,4.70
3596,4.06,4.70
3597,4.06,4.70
3598,4.06,4.70
3599,4.06,4.71
3601,4.06,4.71
3602,4.06,4.70
3603,4.06,4.70
3604,4.06,4.71
3605,4.06,4.70
3606,4.06,4.71
3607,4.06,4.71
3608,4.07,4.71
3610,4.08,4.70
3611,4.08,4.68
3612,4.07,4.64
3613,4.05,4.60
3614,4.03,4.57
3615,4.01,4.54
3616,3.99,4.49
3617,3.96,4.44
3619,3.93,4.39
3620,3.90,4.34
3621,3.86,4.28
3622,3.83,4.26
3623,3.81,4.25
3624,3.80,4.25
3625,3.81,4.25
3627,3.82,4.24
3629,3.81,4.21
3630,3.79,4.17
3631,3.77,4.15
3632,3.76,4.13
3633,3.75,4.11
3634,3.73,4.07
3635,3.71,4.04
3636,3.69,4.00
3638,3.66,3.96
3639,3.63,3.94
3640,3.62,3.93
3641,3.62,3.94
3642,3.63,3.96
3643,3.65,3.97
3644,3.67,3.97
3645,3.66,3.95
3647,3.65,3.93
3648,3.65,3.92
3649,3.65,3.91
3650,3.64,3.89
3651,3.63,3.87
3652,3.61,3.84
3653,3.59,3.81
3655,3.57,3.78
3656,3.56,3.78
3657,3.56,3.80
3658,3.58,3.82
3659,3.60,3.84
3660,3.63,3.85
3661,3.64,3.84
3662,3.64,3.83
3664,3.63,3.81
3665,3.63,3.81
3666,3.63,3.79
3667,3.62,3.77
3668,3.60,3.75
3670,3.59,3.73
3671,3.57,3.70
3672,3.55,3.70
3674,3.55,3.70
3675,3.56,3.72
3676,3.58,3.75
3677,3.61,3.77
3678,3.63,3.77
3679,3.63,3.76
3680,3.63,3.75
3681,3.62,3.74
3683,3.62,3.73
3684,3.61,3.71
3685,3.60,3.70
3686,3.58,3.68
3687,3.57,3.66
3688,3.55,3.64
3689,3.54,3.65
3690,3.55,3.67
3692,3.57,3.69
3693,3.60,3.72
3694,3.63,3.73
3695,3.63,3.72
3696,3.63,3.71
3697,3.63,3.70
3698,3.62,3.70
3700,3.62,3.69
3701,3.61,3.67
3702,3.59,3.65
3703,3.58,3.64
3704,3.56,3.62
3705,3.54,3.61
3706,3.54,3.63
3707,3.56,3.65
3709,3.59,3.68
3710,3.62,3.70
3712,3.63,3.70
3713,3.64,3.70
3714,3.63,3.68
3715,3.62,3.67
3716,3.61,3.65
3717,3.60,3.64
3719,3.58,3.62
3720,3.56,3.60
3721,3.55,3.58
3722,3.53,3.57
3723,3.52,3.58
3724,3.53,3.60
3725,3.55,3.63
3726,3.58,3.66
3728,3.61,3.66
3729,3.62,3.66
3730,3.62,3.65
3731,3.61,3.64
3732,3.60,3.63
3733,3.58,3.61
3734,3.57,3.60
3736,3.55,3.58
3737,3.54,3.56
3738,3.52,3.55
3739,3.51,3.55
3740,3.51,3.56
3741,3.53,3.59
3742,3.56,3.63
3743,3.59,3.64
3745,3.61,3.65
3746,3.61,3.64
3747,3.61,3.63
3748,3.60,3.62
3749,3.59,3.60
3750,3.57,3.59
3751,3.56,3.57
3752,3.54,3.56
3755,3.53,3.54
3756,3.51,3.53
3757,3.51,3.55
3758,3.52,3.57
3759,3.55,3.61
3760,3.58,3.63
3761,3.61,3.64
3763,3.61,3.64
3764,3.61,3.63
3765,3.60,3.62
3766,3.59,3.60
3767,3.58,3.59
3768,3.57,3.58
3769,3.55,3.56
3770,3.54,3.55
3772,3.52,3.53
3773,3.51,3.53
3774,3.52,3.56
3775,3.55,3.59
3776,3.58,3.62
3777,3.61,3.64
3778,3.62,3.64
3779,3.62,3.63
3781,3.62,3.62
3782,3.61,3.61
3783,3.60,3.60
3784,3.58,3.58
3785,3.57,3.57
3786,3.55,3.55
3787,3.54,3.54
3788,3.52,3.53
3790,3.52,3.55
3791,3.54,3.57
3792,3.57,3.61
3793,3.60,3.63
3794,3.62,3.63
3795,3.62,3.63
3796,3.62,3.62
3798,3.61,3.61
3800,3.60,3.60
3801,3.59,3.58
3802,3.57,3.57
3803,3.56,3.56
3804,3.54,3.54
3805,3.52,3.53
3806,3.51,3.53
3807,3.53,3.55
3809,3.55,3.59
3810,3.58,3.62
3811,3.61,3.63
3812,3.62,3.63
3813,3.62,3.62
3814,3.61,3.61
3815,3.60,3.60
3817,3.59,3.58
3818,3.57,3.57
3819,3.56,3.55
3820,3.54,3.54
3821,3.53,3.52
3822,3.51,3.52
3823,3.51,3.54
3824,3.53,3.56
3826,3.56,3.60
3827,3.60,3.62
3828,3.61,3.62
3829,3.61,3.62
3830,3.61,3.61
3831,3.60,3.60
3832,3.59,3.58
3833,3.58,3.57
3835,3.56,3.56
3836,3.55,3.54
3837,3.53,3.53
3838,3.52,3.51
3840,3.51,3.53
3841,3.52,3.55
3842,3.55,3.58
3843,3.58,3.61
3845,3.60,3.62
3846,3.61,3.62
3847,3.61,3.61
3848,3.60,3.60
3849,3.59,3.58
3850,3.58,3.57
3851,3.57,3.56
3852,3.55,3.54
3854,3.54,3.53
3855,3.52,3.51
3856,3.51,3.51
3857,3.51,3.53
3858,3.53,3.56
3859,3.56,3.60
3860,3.59,3.61
3861,3.61,3.61
3863,3.61,3.61
3864,3.60,3.60
3865,3.59,3.59
3866,3.58,3.57
3867,3.57,3.56
3868,3.56,3.55
3869,3.54,3.53
3870,3.52,3.52
3872,3.51,3.51
3873,3.51,3.52
3874,3.52,3.55
3875,3.55,3.58
3876,3.58,3.60
3877,3.60,3.61
3878,3.61,3.61
3879,3.61,3.60
3881,3.60,3.59
3883,3.59,3.58
3884,3.58,3.56
3885,3.57,3.55
3886,3.55,3.54
3887,3.53,3.52
3888,3.52,3.51
3889,3.51,3.51
3891,3.51,3.53
3892,3.54,3.56
3893,3.57,3.60
3894,3.60,3.61
3895,3.61,3.61
3896,3.61,3.60
3897,3.60,3.59
3899,3.59,3.59
3900,3.58,3.57
3901,3.57,3.56
3902,3.56,3.54
3903,3.54,3.53
3904,3.53,3.52
3905,3.51,3.51
3906,3.51,3.51
3908,3.53,3.55
3909,3.56,3.58
3910,3.59,3.60
3911,3.61,3.61
3912,3.61,3.60
3913,3.61,3.60
3914,3.60,3.59
3915,3.59,3.57
3917,3.58,3.56
3918,3.56,3.55
3919,3.55,3.53
3920,3.53,3.52
3921,3.52,3.51
3922,3.51,3.51
3923,3.52,3.54
3924,3.54,3.57
3927,3.58,3.60
3928,3.60,3.61
3929,3.61,3.61
3930,3.61,3.60
3931,3.60,3.59
3932,3.60,3.58
3933,3.58,3.57
3934,3.57,3.55
3936,3.56,3.54
3937,3.54,3.52
3938,3.52,3.51
3939,3.51,3.51
3940,3.51,3.52
3941,3.53,3.55
3942,3.56,3.59
3943,3.59,3.61
3945,3.61,3.61
3946,3.61,3.60
3947,3.61,3.60
3948,3.60,3.59
3949,3.59,3.57
3950,3.58,3.56
3951,3.56,3.55
3952,3.55,3.53
3954,3.53,3.52
3955,3.52,3.51
3956,3.51,3.52
3957,3.52,3.54
3958,3.55,3.57
3959,3.58,3.60
3960,3.60,3.61
3961,3.61,3.61
3963,3.61,3.60
3964,3.61,3.59
3965,3.59,3.58
3966,3.58,3.56
3968,3.57,3.55
3969,3.56,3.54
3970,3.54,3.53
3971,3.52,3.51
3973,3.51,3.51
3974,3.51,3.53
3975,3.54,3.56
3976,3.57,3.59
3977,3.60,3.61
3978,3.61,3.61
3979,3.61,3.61
3981,3.61,3.60
3982,3.60,3.59
3983,3.59,3.57
3984,3.58,3.56
3985,3.56,3.55
3986,3.55,3.53
3987,3.53,3.52
3988,3.52,3.51
3990,3.51,3.52
3991,3.53,3.54
3992,3.56,3.58
3993,3.59,3.60
3994,3.61,3.61
3995,3.61,3.61
3996,3.61,3.61
3997,3.61,3.59
3999,3.60,3.58
4000,3.58,3.57
4001,3.57,3.55
4002,3.56,3.54
4003,3.54,3.52
4004,3.52,3.51
4005,3.51,3.51
4006,3.52,3.53
4008,3.54,3.56
4009,3.58,3.60
4011,3.60,3.61
4012,3.61,3.61
4013,3.62,3.61
4014,3.61,3.60
4015,3.60,3.58
4016,3.59,3.57
4018,3.58,3.56
4019,3.56,3.54
4020,3.55,3.53
4021,3.53,3.52
4022,3.52,3.51
4023,3.51,3.52
4024,3.53,3.55
4025,3.56,3.58
4027,3.59,3.61
4028,3.61,3.61
4029,3.62,3.61
4030,3.61,3.60
4031,3.61,3.59
4032,3.59,3.58
4033,3.58,3.57
4035,3.57,3.55
4036,3.55,3.54
4037,3.54,3.52
4038,3.52,3.51
4039,3.51,3.52
4040,3.52,3.54
4041,3.55,3.57
4042,3.58,3.60
4044,3.61,3.61
4045,3.62,3.61
4046,3.62,3.60
4047,3.61,3.60
4048,3.60,3.59
4049,3.59,3.57
4050,3.58,3.56
4051,3.56,3.54
4054,3.55,3.53
4055,3.53,3.51
4056,3.51,3.51
4057,3.52,3.52
4058,3.53,3.55
4059,3.56,3.59
4060,3.59,3.61
4061,3.61,3.61
4063,3.62,3.61
4064,3.61,3.60
4065,3.60,3.59
4066,3.59,3.58
4067,3.58,3.56
4068,3.57,3.55
4069,3.55,3.53
4070,3.54,3.52
4072,3.52,3.50
4073,3.51,3.51
4074,3.52,3.54
4075,3.55,3.57
4076,3.58,3.60
4077,3.60,3.61
4078,3.61,3.60
4079,3.61,3.60
4081,3.60,3.59
4082,3.59,3.58
4083,3.58,3.57
4084,3.57,3.55
4085,3.55,3.54
4086,3.54,3.52
4087,3.52,3.51
4088,3.51,3.51
4090,3.51,3.52
4091,3.53,3.55
4092,3.56,3.59
4093,3.59,3.61
4094,3.60,3.61
4096,3.61,3.60
4097,3.60,3.59
4098,3.60,3.58
4100,3.59,3.57
4101,3.57,3.56
4102,3.56,3.54
4103,3.54,3.53
4104,3.53,3.52
4105,3.51,3.50
4106,3.50,3.51
4107,3.52,3.54
4109,3.54,3.57
4110,3.58,3.60
4111,3.60,3.61
4112,3.61,3.60
4113,3.61,3.60
4114,3.60,3.59
4115,3.59,3.58
4116,3.58,3.57
4118,3.57,3.55
4119,3.55,3.54
4120,3.54,3.52
4121,3.52,3.51
4122,3.51,3.51
4123,3.51,3.52
4124,3.53,3.55
4125,3.56,3.58
4127,3.59,3.60
4128,3.60,3.60
4129,3.60,3.60
4130,3.60,3.59
4131,3.59,3.58
4132,3.58,3.57
4133,3.57,3.55
4134,3.55,3.54
4136,3.54,3.53
4137,3.52,3.51
4139,3.51,3.50
4140,3.50,3.51
4141,3.51,3.53
4142,3.54,3.56
4143,3.57,3.59
4144,3.59,3.60
4146,3.60,3.60
4147,3.59,3.59
4148,3.59,3.58
4149,3.58,3.57
4150,3.57,3.56
4151,3.55,3.54
4152,3.54,3.53
4153,3.52,3.51
4155,3.51,3.50
4156,3.50,3.50
4157,3.50,3.51
4158,3.51,3.54
4159,3.54,3.58
4160,3.57,3.59
4161,3.59,3.59
4162,3.59,3.59
4164,3.58,3.58
4165,3.57,3.57
4166,3.57,3.56
4167,3.55,3.54
4168,3.54,3.53
4169,3.52,3.51
4170,3.51,3.50
4171,3.49,3.49
4173,3.49,3.50
4174,3.50,3.52
4175,3.52,3.56
4176,3.55,3.58
4177,3.57,3.59
4178,3.58,3.59
4179,3.58,3.58
4180,3.57,3.57
4183,3.56,3.56
4184,3.55,3.55
4185,3.54,3.54
4186,3.53,3.52
4187,3.51,3.51
4188,3.50,3.49
4189,3.49,3.49
4190,3.49,3.51
4192,3.50,3.53
4193,3.53,3.57
4194,3.56,3.58
4195,3.57,3.58
4196,3.58,3.58
4197,3.57,3.57
4198,3.56,3.56
4199,3.55,3.54
4201,3.54,3.53
4202,3.53,3.52
4203,3.51,3.51
4204,3.50,3.49
4205,3.48,3.48
4206,3.48,3.49
4207,3.49,3.52
4208,3.51,3.55
4210,3.54,3.57
4211,3.56,3.58
4212,3.57,3.57
4213,3.57,3.57
4214,3.56,3.56
4215,3.55,3.55
4216,3.54,3.53
4217,3.53,3.52
4219,3.51,3.51
4220,3.50,3.49
4221,3.49,3.48
4222,3.48,3.48
4224,3.48,3.49
4225,3.49,3.52
4226,3.52,3.55
4227,3.54,3.57
4229,3.55,3.57
4230,3.56,3.56
4231,3.55,3.55
4232,3.55,3.54
4233,3.53,3.53
4234,3.52,3.52
4235,3.51,3.50
4236,3.50,3.49
4238,3.48,3.48
4239,3.47,3.47
4240,3.46,3.48
4241,3.47,3.50
4242,3.50,3.54
4243,3.52,3.55
4244,3.54,3.56
4245,3.55,3.56
4247,3.55,3.55
4248,3.54,3.54
4249,3.53,3.53
4250,3.52,3.52
4251,3.51,3.51
4252,3.50,3.49
4253,3.49,3.48
4254,3.48,3.47
4256,3.46,3.47
4257,3.46,3.49
4258,3.48,3.52
4259,3.51,3.55
4260,3.53,3.56
4261,3.55,3.56
4262,3.55,3.55
4263,3.55,3.54
4265,3.54,3.54
4267,3.53,3.52
4268,3.52,3.51
4269,3.51,3.50
4270,3.49,3.49
4271,3.48,3.48
4272,3.47,3.47
4273,3.47,3.48
4275,3.48,3.51
4276,3.50,3.54
4277,3.53,3.56
4278,3.55,3.57
4279,3.56,3.56
4280,3.56,3.56
4281,3.55,3.55
4282,3.55,3.54
4284,3.53,3.52
4285,3.52,3.51
4286,3.51,3.50
4287,3.50,3.49
4288,3.48,3.48
4289,3.48,3.48
4290,3.48,3.50
4291,3.50,3.53
4293,3.53,3.56
4294,3.56,3.57
4295,3.57,3.57
4296,3.57,3.56
4297,3.56,3.56
4298,3.56,3.54
4299,3.55,3.53
4300,3.53,3.52
4302,3.52,3.51
4303,3.51,3.50
4304,3.49,3.48
4305,3.48,3.48
4306,3.48,3.50
4307,3.50,3.52
4308,3.53,3.56
4310,3.56,3.58
4312,3.57,3.58
4313,3.58,3.58
4314,3.58,3.57
4315,3.57,3.56
4316,3.56,3.55
4317,3.55,3.53
4318,3.53,3.52
4320,3.52,3.50
4321,3.51,3.49
4322,3.49,3.48
4323,3.48,3.49
4324,3.50,3.51
4325,3.52,3.55
4326,3.55,3.57
4327,3.57,3.58
4329,3.58,3.58
4330,3.58,3.57
4331,3.57,3.56
4332,3.56,3.55
4333,3.55,3.54
4334,3.54,3.52
4335,3.53,3.51
4336,3.51,3.50
4338,3.50,3.49
4339,3.49,3.49
4340,3.49,3.51
4341,3.51,3.54
4342,3.54,3.57
4343,3.57,3.58
4344,3.58,3.58
4345,3.58,3.58
4347,3.58,3.57
4348,3.57,3.56
4349,3.56,3.54
4350,3.55,3.53
4352,3.53,3.52
4353,3.52,3.51
4354,3.51,3.50
4355,3.49,3.49
4357,3.49,3.50
4358,3.51,3.53
4359,3.54,3.56
4360,3.57,3.58
4361,3.59,3.59
4362,3.59,3.58
4363,3.59,3.57
4364,3.58,3.56
4366,3.57,3.55
4367,3.56,3.54
4368,3.55,3.53
4369,3.53,3.52
4370,3.52,3.50
4371,3.50,3.49
4372,3.49,3.49
4373,3.51,3.52
4375,3.53,3.55
4376,3.56,3.58
4377,3.58,3.59
4378,3.59,3.59
4379,3.59,3.58
4380,3.59,3.57
4381,3.58,3.56
4382,3.57,3.55
4384,3.56,3.54
4385,3.54,3.52
4386,3.53,3.51
4387,3.51,3.50
4388,3.50,3.49
4389,3.50,3.51
4390,3.52,3.54
4391,3.55,3.57
4393,3.58,3.59
4395,3.60,3.59
4396,3.60,3.59
4397,3.60,3.58
4398,3.59,3.56
4399,3.58,3.56
4400,3.57,3.54
4401,3.55,3.53
4403,3.54,3.52
4404,3.52,3.50
4405,3.51,3.49
4406,3.50,3.50
4407,3.51,3.52
4408,3.54,3.56
4409,3.57,3.58
4410,3.59,3.59
4412,3.60,3.59
4413,3.60,3.58
4414,3.59,3.57
4415,3.59,3.56
4416,3.57,3.55
4417,3.56,3.54
4418,3.55,3.52
4419,3.53,3.51
4421,3.51,3.50
4422,3.50,3.49
4423,3.51,3.51
4424,3.53,3.54
4425,3.56,3.57
4426,3.59,3.59
4427,3.60,3.59
4428,3.61,3.59
4430,3.60,3.58
4431,3.59,3.57
4432,3.58,3.56
4433,3.57,3.55
4434,3.56,3.53
4435,3.54,3.52
4436,3.53,3.51
4438,3.51,3.50
4440,3.50,3.51
4441,3.52,3.53
4442,3.55,3.56
4443,3.58,3.59
4444,3.60,3.59
4445,3.61,3.59
4446,3.61,3.59
4447,3.60,3.58
4449,3.59,3.57
4450,3.58,3.55
4451,3.57,3.54
4452,3.55,3.53
4453,3.53,3.51
4454,3.52,3.50
4455,3.51,3.50
4456,3.52,3.52
4458,3.54,3.55
4459,3.57,3.58
4460,3.60,3.60
4461,3.61,3.60
4462,3.61,3.59
4463,3.61,3.59
4464,3.60,3.57
4465,3.59,3.56
4467,3.58,3.55
4468,3.56,3.53
4469,3.55,3.52
4470,3.53,3.51
4471,3.52,3.50
4472,3.51,3.51
4473,3.53,3.54
4474,3.56,3.57
4476,3.59,3.60
4477,3.61,3.60
4478,3.62,3.60
4480,3.61,3.59
4481,3.61,3.58
4482,3.60,3.57
4483,3.59,3.56
4484,3.57,3.54
4486,3.56,3.53
4487,3.54,3.51
4488,3.52,3.50
4489,3.51,3.51
4490,3.52,3.52
4491,3.54,3.55
4492,3.56,3.57
4493,3.59,3.58
4495,3.59,3.58
4496,3.59,3.58
4497,3.59,3.57
4498,3.58,3.56
4499,3.56,3.54
4500,3.55,3.53
4501,3.54,3.52
4502,3.52,3.50
4504,3.51,3.49
4505,3.49,3.48
4506,3.49,3.49
4507,3.49,3.50
4508,3.50,3.52
4509,3.52,3.53
4510,3.52,3.53
4511,3.52,3.52
4513,3.52,3.52
4514,3.51,3.50
4515,3.50,3.49
4516,3.48,3.48
4517,3.47,3.47
4518,3.46,3.46
4519,3.44,3.45
4520,3.42,3.43
4523,3.41,3.44
4524,3.42,3.46
4525,3.44,3.48
4526,3.46,3.50
4527,3.48,3.51
4528,3.49,3.51
4529,3.50,3.50
4531,3.49,3.50
4532,3.49,3.48
4533,3.48,3.48
4534,3.47,3.46
4535,3.46,3.45
4536,3.45,3.44
4537,3.43,3.43
4538,3.42,3.42
4540,3.42,3.44
4541,3.44,3.47
4542,3.47,3.50
4543,3.50,3.52
4544,3.51,3.52
4545,3.52,3.52
4546,3.53,3.51
4547,3.52,3.51
4549,3.52,3.49
4550,3.51,3.49
4551,3.50,3.48
4552,3.48,3.47
4553,3.48,3.45
4554,3.46,3.44
4555,3.46,3.46
4557,3.47,3.48
4558,3.50,3.52
4559,3.54,3.55
4560,3.56,3.56
4561,3.58,3.56
4562,3.58,3.56
4563,3.58,3.55
4564,3.57,3.54
4567,3.56,3.53
4568,3.55,3.51
4569,3.53,3.50
4570,3.52,3.49
4571,3.51,3.48
4572,3.50,3.49
4573,3.52,3.52
4574,3.55,3.55
4576,3.58,3.59
4577,3.61,3.60
4578,3.63,3.61
4579,3.64,3.60
4580,3.63,3.60
4581,3.64,3.60
4582,3.63,3.60
4583,3.63,3.59
4585,3.62,3.58
4586,3.60,3.56
4587,3.59,3.55
4588,3.58,3.55
4589,3.59,3.57
4590,3.61,3.60
4591,3.64,3.64
4592,3.68,3.66
4594,3.70,3.67
4595,3.70,3.67
4596,3.70,3.66
4597,3.70,3.66
4598,3.70,3.66
4599,3.69,3.65
4600,3.68,3.64
4601,3.67,3.62
4603,3.65,3.61
4604,3.63,3.60
4605,3.63,3.61
4606,3.65,3.64
4608,3.68,3.67
4609,3.71,3.70
4610,3.74,3.70
4612,3.74,3.70
4613,3.74,3.70
4614,3.74,3.70
4615,3.74,3.70
4616,3.74,3.70
4617,3.73,3.68
4618,3.71,3.67
4619,3.70,3.65
4621,3.68,3.64
4622,3.68,3.65
4623,3.69,3.67
4624,3.71,3.70
4625,3.75,3.73
4626,3.79,3.77
4627,3.83,3.82
4628,3.87,3.86
4630,3.91,3.89
4631,3.96,3.92
4632,4.00,3.96
4633,4.04,3.99
4634,4.08,4.03
4635,4.12,4.06
4636,4.16,4.10
4637,4.20,4.13
4639,4.24,4.17
4640,4.28,4.20
4641,4.32,4.23
4642,4.35,4.26
4643,4.39,4.29
4644,4.42,4.32
4645,4.45,4.34
4646,4.48,4.36
4648,4.51,4.39
4649,4.54,4.41
4651,4.56,4.43
4652,4.58,4.45
4653,4.60,4.47
4654,4.62,4.49
4655,4.64,4.51
4656,4.65,4.52
4658,4.66,4.54
4659,4.66,4.55
4660,4.67,4.56
4661,4.67,4.57
4662,4.67,4.57
4663,4.67,4.58
4664,4.67,4.58
4666,4.66,4.59
4667,4.66,4.59
4668,4.65,4.59
4669,4.64,4.59
4670,4.63,4.59
4671,4.62,4.60
4672,4.61,4.59
4673,4.60,4.59
4675,4.59,4.59
4676,4.58,4.59
4677,4.57,4.59
4678,4.56,4.59
4679,4.54,4.59
4680,4.53,4.59
4681,4.52,4.59
4682,4.51,4.59
4684,4.50,4.59
4685,4.49,4.58
4686,4.48,4.59
4687,4.47,4.58
4688,4.46,4.58
4689,4.45,4.58
4690,4.44,4.59
4691,4.43,4.59
4694,4.42,4.58
4695,4.41,4.59
4696,4.40,4.59
4697,4.39,4.59
4698,4.38,4.59
4699,4.38,4.59
4700,4.37,4.59
4701,4.36,4.60
4703,4.36,4.60
4704,4.36,4.60
4705,4.35,4.60
4706,4.35,4.61
4707,4.34,4.61
4708,4.34,4.61
4709,4.34,4.62
4710,4.33,4.62
4712,4.33,4.63
4713,4.33,4.63
4714,4.32,4.63
4715,4.32,4.64
4716,4.32,4.64
4717,4.31,4.65
4718,4.31,4.65
4719,4.31,4.66
4721,4.31,4.66
4722,4.30,4.67
4723,4.30,4.67
4724,4.30,4.68
4725,4.30,4.68
4726,4.30,4.69
4727,4.30,4.69
4729,4.30,4.70
4730,4.30,4.71
4731,4.29,4.71
4732,4.29,4.72
4733,4.29,4.72
4734,4.29,4.73
4736,4.29,4.73
4737,4.29,4.74
4739,4.29,4.75
4740,4.29,4.75
4741,4.29,4.76
4742,4.29,4.76
4743,4.29,4.77
4744,4.29,4.78
4745,4.29,4.78
4746,4.28,4.78
4748,4.28,4.79
4749,4.28,4.80
4750,4.28,4.80
4751,4.28,4.81
4752,4.28,4.81
4753,4.28,4.82
4754,4.28,4.82
4755,4.28,4.83
4757,4.27,4.83
4758,4.27,4.84
4759,4.27,4.84
4760,4.27,4.85
4761,4.27,4.85
4762,4.27,4.85
4763,4.27,4.86
4764,4.27,4.86
4766,4.27,4.86
4767,4.27,4.87
4768,4.26,4.87
4769,4.26,4.87
4770,4.26,4.88
4771,4.26,4.88
4772,4.26,4.88
4773,4.26,4.88
4775,4.25,4.88
4776,4.25,4.89
4777,4.25,4.89
4779,4.25,4.89
4780,4.25,4.89
4781,4.25,4.90
4782,4.25,4.90
4783,4.25,4.90
4785,4.25,4.90
4786,4.24,4.90
4787,4.24,4.91
4788,4.24,4.91
4789,4.24,4.91
4790,4.24,4.91
4791,4.24,4.91
4792,4.24,4.92
4794,4.24,4.92
4795,4.23,4.92
4796,4.23,4.92
4797,4.23,4.92
4798,4.23,4.92
4799,4.23,4.92
4800,4.23,4.92
4801,4.23,4.92
4803,4.23,4.92
4804,4.23,4.93
4805,4.23,4.93
4806,4.23,4.93
4807,4.23,4.93
4808,4.23,4.93
4809,4.22,4.93
4810,4.22,4.93
4812,4.22,4.93
4813,4.22,4.93
4814,4.22,4.93
4815,4.22,4.94
4816,4.22,4.94
4817,4.22,4.94
4818,4.22,4.94
4820,4.22,4.94
4822,4.22,4.94
4823,4.22,4.94
4824,4.22,4.94
4825,4.22,4.94
4826,4.22,4.94
4827,4.22,4.94
4828,4.22,4.94
4830,4.22,4.94
4831,4.22,4.94
4832,4.21,4.94
4833,4.21,4.95
4834,4.21,4.95
4835,4.21,4.95
4836,4.21,4.95
4837,4.21,4.95
4839,4.21,4.95
4840,4.21,4.95
4841,4.21,4.95
4842,4.21,4.95
4843,4.21,4.95
4844,4.21,4.95
4845,4.21,4.95
4847,4.21,4.95
4848,4.21,4.95
4849,4.21,4.95
4850,4.21,4.95
4851,4.21,4.95
4852,4.20,4.95
4853,4.20,4.95
4854,4.21,4.95
4856,4.21,4.95
4857,4.20,4.95
4858,4.20,4.95
4859,4.20,4.95
4860,4.20,4.96
4861,4.20,4.96
4862,4.20,4.95
4864,4.20,4.95
4866,4.20,4.96
4867,4.20,4.95
4868,4.20,4.96
4869,4.20,4.96
4870,4.20,4.96
4871,4.20,4.96
4872,4.20,4.96
4873,4.20,4.96
4875,4.20,4.96
4876,4.20,4.96
4877,4.20,4.96
4878,4.20,4.96
4879,4.20,4.96
4880,4.20,4.96
4881,4.20,4.96
4882,4.20,4.96
4884,4.19,4.96
4885,4.19,4.96
4886,4.19,4.96
4887,4.19,4.96
4888,4.19,4.96
4889,4.19,4.96
4890,4.19,4.96
4892,4.19,4.96
4893,4.19,4.96
4894,4.19,4.96
4895,4.19,4.96
4896,4.19,4.96
4897,4.19,4.96
4898,4.19,4.96
4899,4.19,4.96
4901,4.19,4.96
4902,4.19,4.96
4903,4.19,4.96
4904,4.19,4.96
4905,4.19,4.96
4907,4.19,4.96
4908,4.19,4.96
4909,4.19,4.96
4911,4.19,4.96
4912,4.19,4.96
4913,4.19,4.96
4914,4.18,4.96
4915,4.19,4.96
4916,4.18,4.96
4917,4.18,4.96
4918,4.18,4.96
4920,4.18,4.96
4921,4.18,4.96
4922,4.19,4.96
4923,4.18,4.96
4924,4.18,4.96
4925,4.18,4.96
4926,4.18,4.96
4927,4.18,4.96
4929,4.18,4.96
4930,4.18,4.96
4931,4.18,4.96
4932,4.18,4.96
4933,4.18,4.96
4934,4.18,4.96
4935,4.18,4.96
4936,4.18,4.96
4938,4.18,4.96
4939,4.18,4.96
4940,4.18,4.96
4941,4.18,4.96
4942,4.18,4.96
4943,4.18,4.96
4944,4.18,4.96
4945,4.18,4.96
4947,4.18,4.96
4948,4.18,4.96
4950,4.18,4.96
4951,4.18,4.96
4952,4.18,4.96
4953,4.18,4.96
4954,4.18,4.96
4955,4.18,4.96
4957,4.18,4.96
4958,4.18,4.96
4959,4.18,4.96
4960,4.18,4.96
4961,4.18,4.96
4962,4.18,4.96
4963,4.18,4.96
4964,4.18,4.96
4966,4.18,4.96
4967,4.18,4.96
4968,4.18,4.96
4969,4.18,4.96
4970,4.18,4.96
4971,4.18,4.96
4972,4.17,4.96
4973,4.17,4.96
4975,4.18,4.96
4976,4.18,4.96
4977,4.17,4.96
4978,4.17,4.96
4979,4.17,4.96
4980,4.17,4.96
4981,4.17,4.96
4982,4.17,4.96
4984,4.17,4.97
4985,4.17,4.96
4986,4.17,4.96
4987,4.18,4.96
4988,4.17,4.96
4989,4.17,4.96
4990,4.17,4.96
4992,4.17,4.96
4994,4.17,4.96
4995,4.17,4.96
4996,4.17,4.96
4997,4.17,4.96
4998,4.17,4.96
4999,4.17,4.96
5000,4.17,4.96
5001,4.17,4.96
5003,4.17,4.96
5004,4.17,4.96
5005,4.17,4.96
5006,4.17,4.97
5007,4.17,4.96
5008,4.17,4.96
5009,4.17,4.96
5010,4.17,4.96
5012,4.17,4.96
5013,4.17,4.96
5014,4.17,4.96
5015,4.17,4.96
5016,4.17,4.96
5017,4.17,4.96
5018,4.17,4.96
5019,4.17,4.96
5021,4.17,4.96
5022,4.17,4.96
5023,4.17,4.96
5024,4.17,4.97
5025,4.17,4.96
5026,4.17,4.96
5027,4.17,4.96
5028,4.17,4.96
5030,4.17,4.96
5031,4.17,4.96
5032,4.17,4.96
5033,4.17,4.96
5035,4.17,4.96
5036,4.17,4.96
5037,4.17,4.96
5038,4.17,4.96
5040,4.17,4.96
5041,4.17,4.96
5042,4.17,4.96
5043,4.17,4.97
5044,4.17,4.96
5045,4.17,4.96
5046,4.17,4.96
5047,4.17,4.96
5049,4.17,4.96
5050,4.16,4.96
5051,4.17,4.96
5052,4.16,4.96
5053,4.17,4.97
5054,4.16,4.96
5055,4.17,4.96
5056,4.16,4.97
5058,4.16,4.96
5059,4.16,4.96
5060,4.16,4.96
5061,4.16,4.96
5062,4.16,4.96
5063,4.16,4.97
5064,4.16,4.96
5065,4.16,4.97
5067,4.16,4.96
5068,4.16,4.97
5069,4.16,4.97
5070,4.16,4.96
5071,4.16,4.97
5072,4.16,4.97
5073,4.16,4.97
5075,4.16,4.97
5076,4.16,4.97
5078,4.16,4.96
5079,4.16,4.97
5080,4.16,4.97
5081,4.16,4.97
5082,4.16,4.97
5083,4.16,4.97
5085,4.16,4.96
5086,4.16,4.96
5087,4.16,4.96
5088,4.16,4.96
5089,4.16,4.95
5090,4.16,4.95
5091,4.16,4.94
5093,4.16,4.94
5094,4.16,4.94
5095,4.16,4.93
5096,4.16,4.93
5097,4.16,4.92
5098,4.16,4.91
5099,4.16,4.91
5100,4.16,4.90
5102,4.16,4.90
5103,4.16,4.89
5104,4.16,4.88
5105,4.16,4.87
5106,4.16,4.86
5107,4.16,4.85
5108,4.16,4.85
5109,4.16,4.84
5111,4.15,4.83
5112,4.15,4.82
5113,4.15,4.81
5114,4.15,4.81
5115,4.15,4.80
5116,4.15,4.79
5117,4.15,4.78
5118,4.15,4.78
5121,4.14,4.77
5122,4.14,4.76
5123,4.14,4.75
5124,4.14,4.74
5125,4.14,4.73
5126,4.14,4.73
5127,4.14,4.72
5129,4.14,4.71
5130,4.14,4.70
5131,4.14,4.70
5132,4.13,4.69
5133,4.13,4.68
5134,4.13,4.67
5135,4.13,4.66
5136,4.13,4.66
5138,4.13,4.65
5139,4.13,4.64
5140,4.13,4.64
5141,4.13,4.63
5142,4.13,4.62
5143,4.13,4.62
5144,4.13,4.61
5145,4.13,4.60
5147,4.12,4.60
5148,4.12,4.59
5149,4.12,4.59
5150,4.12,4.58
5151,4.12,4.58
5152,4.12,4.57
5153,4.12,4.57
5154,4.12,4.57
5156,4.12,4.56
5157,4.12,4.56
5158,4.12,4.55
5159,4.12,4.55
5160,4.12,4.54
5161,4.12,4.54
5163,4.12,4.54
5165,4.12,4.53
5166,4.12,4.53
5167,4.12,4.52
5168,4.12,4.52
5169,4.12,4.52
5170,4.12,4.51
5171,4.12,4.51
5173,4.12,4.51
5174,4.12,4.50
5175,4.12,4.50
5176,4.12,4.50
5177,4.12,4.49
5178,4.12,4.49
5179,4.12,4.49
5180,4.12,4.49
5182,4.12,4.49
5183,4.12,4.48
5184,4.12,4.48
5185,4.12,4.48
5186,4.12,4.48
5187,4.12,4.48
5188,4.12,4.47
5189,4.12,4.47
5191,4.12,4.47
5192,4.12,4.47
5193,4.12,4.46
5194,4.12,4.46
5195,4.12,4.46
5196,4.12,4.46
5197,4.12,4.46
5198,4.12,4.46
5200,4.12,4.46
5201,4.12,4.46
5202,4.13,4.46
5203,4.12,4.46
5204,4.13,4.45
5206,4.13,4.45
5207,4.13,4.45
5209,4.13,4.45
5210,4.13,4.45
5211,4.13,4.45
5212,4.13,4.45
5213,4.13,4.45
5214,4.13,4.45
5215,4.13,4.45
5216,4.13,4.45
5218,4.13,4.45
5219,4.13,4.45
5220,4.13,4.45
5221,4.13,4.45
5222,4.13,4.45
5223,4.13,4.45
5224,4.13,4.45
5226,4.13,4.45
5227,4.13,4.45
5228,4.13,4.46
5229,4.13,4.46
5230,4.13,4.46
5231,4.13,4.46
5232,4.13,4.46
5233,4.13,4.46
5235,4.13,4.46
5236,4.13,4.47
5237,4.13,4.47
5238,4.13,4.47
5239,4.13,4.47
5240,4.13,4.47
5241,4.13,4.48
5243,4.13,4.48
5244,4.13,4.48
5245,4.13,4.49
5246,4.13,4.49
5248,4.13,4.49
5249,4.14,4.49
5250,4.13,4.50
5251,4.14,4.50
5253,4.14,4.50
5254,4.14,4.51
5255,4.14,4.51
5256,4.14,4.51
5257,4.14,4.51
5258,4.14,4.52
5259,4.14,4.52
5260,4.14,4.52
5262,4.14,4.53
5263,4.14,4.53
5264,4.14,4.53
5265,4.14,4.54
5266,4.14,4.54
5267,4.14,4.55
5268,4.14,4.55
5269,4.14,4.56
5271,4.14,4.56
5272,4.14,4.56
5273,4.14,4.57
5274,4.14,4.57
5275,4.14,4.57
5276,4.14,4.57
5277,4.14,4.58
5279,4.14,4.58
5280,4.14,4.58
5281,4.14,4.59
5282,4.14,4.59
5283,4.14,4.60
5284,4.14,4.60
5285,4.14,4.61
5286,4.14,4.61
5288,4.14,4.61
5289,4.14,4.62
5291,4.14,4.62
5292,4.14,4.63
5293,4.13,4.63
5294,4.13,4.63
5295,4.13,4.64
5296,4.13,4.64
5298,4.13,4.65
5299,4.13,4.65
5300,4.13,4.65
5301,4.13,4.66
5302,4.13,4.66
5303,4.13,4.67
5304,4.13,4.67
5305,4.13,4.67
5307,4.13,4.68
5308,4.13,4.68
5309,4.13,4.68
5310,4.13,4.69
5311,4.13,4.69
5312,4.13,4.70
5313,4.13,4.70
5314,4.13,4.70
5316,4.13,4.71
5317,4.13,4.71
5318,4.13,4.71
5319,4.13,4.72
5320,4.13,4.72
5321,4.13,4.72
5322,4.13,4.73
5324,4.12,4.73
5325,4.13,4.73
5326,4.13,4.73
5327,4.13,4.73
5328,4.12,4.74
5329,4.12,4.74
5330,4.12,4.74
5331,4.12,4.74
5334,4.12,4.74
5335,4.12,4.75
5336,4.12,4.75
5337,4.12,4.75
5338,4.12,4.75
5339,4.12,4.76
5340,4.12,4.76
5342,4.12,4.76
5343,4.12,4.76
5344,4.12,4.77
5345,4.12,4.77
5346,4.12,4.77
5347,4.12,4.78
5348,4.12,4.78
5349,4.12,4.78
5351,4.12,4.78
5352,4.12,4.78
5353,4.12,4.78
5354,4.12,4.79
5355,4.12,4.79
5356,4.11,4.79
5357,4.12,4.80
5359,4.11,4.80
5360,4.11,4.80
5361,4.11,4.81
5362,4.11,4.81
5363,4.11,4.81
5364,4.11,4.81
5365,4.11,4.82
5366,4.11,4.82
5368,4.11,4.82
5369,4.11,4.82
5370,4.11,4.83
5371,4.11,4.83
5372,4.11,4.83
5373,4.11,4.83
5374,4.11,4.84
5376,4.11,4.84
5378,4.11,4.84
5379,4.11,4.84
5380,4.11,4.84
5381,4.11,4.85
5382,4.11,4.85
5383,4.11,4.85
5384,4.11,4.85
5385,4.11,4.86
5387,4.11,4.86
5388,4.11,4.86
5389,4.11,4.86
5390,4.11,4.86
5391,4.11,4.87
5392,4.11,4.87
5393,4.11,4.87
5395,4.11,4.87
5396,4.11,4.87
5397,4.11,4.88
5398,4.11,4.88
5399,4.11,4.88
5400,4.11,4.88
5401,4.11,4.89
5402,4.11,4.89
5404,4.10,4.89
5405,4.10,4.89
5406,4.10,4.90
5407,4.10,4.90
5408,4.10,4.90
5409,4.10,4.90
5410,4.10,4.90
5411,4.10,4.91
5413,4.11,4.91
5414,4.11,4.91
5415,4.11,4.91
5416,4.10,4.92
5417,4.10,4.92
5419,4.10,4.92
5420,4.10,4.92
5421,4.10,4.93
5423,4.10,4.92
5424,4.10,4.93
5425,4.10,4.93
5426,4.10,4.93
5427,4.10,4.93
5428,4.10,4.93
5429,4.10,4.93
5430,4.10,4.93
5432,4.10,4.93
5433,4.10,4.93
5434,4.10,4.94
5435,4.10,4.94
5436,4.10,4.94
5437,4.10,4.94
5438,4.10,4.94
5439,4.10,4.94
5441,4.10,4.94
5442,4.10,4.94
5443,4.10,4.94
5444,4.10,4.94
5445,4.10,4.94
5446,4.10,4.95
5447,4.10,4.95
5448,4.10,4.95
5450,4.10,4.95
5451,4.10,4.95
5452,4.10,4.95
5453,4.10,4.95
5454,4.10,4.95
5455,4.10,4.95
5456,4.10,4.95
5457,4.10,4.95
5459,4.10,4.95
5460,4.10,4.95
5462,4.10,4.95
5463,4.10,4.95
5464,4.10,4.95
5465,4.10,4.96
5466,4.10,4.96
5467,4.10,4.96
5469,4.10,4.96
5470,4.10,4.96
5471,4.10,4.96
5472,4.10,4.96
5473,4.10,4.96
5474,4.10,4.96
5475,4.10,4.96
5477,4.10,4.96
5478,4.10,4.96
5479,4.10,4.96
5480,4.10,4.96
5481,4.10,4.96
5482,4.10,4.96
5483,4.10,4.96
5484,4.10,4.96
5486,4.10,4.96
5487,4.10,4.96
5488,4.10,4.96
5489,4.10,4.96
5490,4.10,4.96
5491,4.10,4.96
5492,4.10,4.96
5493,4.10,4.96
5495,4.10,4.96
5496,4.10,4.96
5497,4.10,4.96
5498,4.10,4.96
5499,4.09,4.96
5500,4.09,4.96
5501,4.09,4.96
5502,4.09,4.96
5505,4.09,4.96
5506,4.09,4.96
5507,4.09,4.96
5508,4.09,4.96
5509,4.09,4.96
5510,4.09,4.96
5511,4.09,4.96
5512,4.09,4.96
5514,4.09,4.96
5515,4.09,4.96
5516,4.09,4.96
5517,4.09,4.96
5518,4.09,4.96
5519,4.09,4.96
5520,4.09,4.96
5521,4.09,4.96
5522,4.09,4.96
5524,4.09,4.96
5525,4.09,4.96
5526,4.09,4.96
5527,4.09,4.96
5528,4.09,4.96
5529,4.09,4.96
5530,4.09,4.96
5531,4.09,4.96
5533,4.09,4.96
5534,4.09,4.96
5535,4.09,4.96
5536,4.09,4.96
5537,4.09,4.96
5538,4.09,4.96
5539,4.09,4.96
5540,4.09,4.96
5541,4.09,4.96
5543,4.09,4.96
5544,4.09,4.96
5545,4.09,4.96
5547,4.09,4.96
5548,4.09,4.96
5549,4.09,4.96
5550,4.09,4.97
5551,4.09,4.96
5553,4.09,4.96
5554,4.09,4.97
5555,4.09,4.96
5556,4.09,4.96
5557,4.09,4.96
5558,4.09,4.97
5559,4.09,4.96
5560,4.09,4.97
5562,4.09,4.96
5563,4.09,4.96
5564,4.08,4.97
5565,4.08,4.96
5566,4.08,4.96
5567,4.08,4.96
5568,4.08,4.96
5569,4.08,4.96
5571,4.08,4.96
5572,4.08,4.96
5573,4.08,4.97
5574,4.08,4.96
5575,4.08,4.97
5576,4.08,4.96
5577,4.08,4.96
5578,4.08,4.96
5579,4.08,4.96
5581,4.08,4.97
5582,4.08,4.96
5583,4.08,4.96
5584,4.08,4.96
5585,4.08,4.96
5586,4.08,4.96
5587,4.08,4.96
5588,4.08,4.97
5591,4.08,4.96
5592,4.08,4.96
5593,4.08,4.96
5594,4.08,4.96
5595,4.08,4.97
5596,4.08,4.96
5597,4.08,4.96
5598,4.08,4.96
5600,4.08,4.96
5601,4.08,4.96
5602,4.08,4.96
5603,4.08,4.96
5604,4.08,4.96
5605,4.08,4.96
5606,4.08,4.97
5607,4.08,4.96
5608,4.08,4.96
5610,4.08,4.96
5611,4.08,4.96
5612,4.08,4.96
5613,4.08,4.96
5614,4.08,4.96
5615,4.08,4.97
5616,4.08,4.96
5617,4.08,4.96
5619,4.08,4.96
5620,4.08,4.96
5621,4.08,4.96
5622,4.08,4.96
5623,4.08,4.96
5624,4.08,4.96
5625,4.08,4.96
5626,4.08,4.96
5627,4.08,4.96
5629,4.08,4.96
5630,4.07,4.96
5632,4.07,4.96
5633,4.07,4.96
5634,4.07,4.96
5635,4.07,4.96
5636,4.07,4.96
5637,4.07,4.96
5639,4.07,4.96
5640,4.07,4.96
5641,4.07,4.96
5642,4.07,4.96
5643,4.07,4.96
5644,4.07,4.96
5645,4.07,4.96
5646,4.07,4.97
5647,4.07,4.96
5649,4.07,4.97
5650,4.07,4.96
5651,4.07,4.96
5652,4.07,4.96
5653,4.07,4.96
5654,4.07,4.96
5655,4.07,4.96
5656,4.07,4.96
5658,4.07,4.96
5659,4.07,4.97
5660,4.07,4.97
5661,4.07,4.96
5662,4.07,4.96
5663,4.07,4.96
5664,4.07,4.96
5665,4.07,4.96
5667,4.07,4.96
5668,4.07,4.97
5669,4.07,4.96
5670,4.07,4.96
5671,4.07,4.96
5672,4.07,4.96
5673,4.07,4.96
5675,4.07,4.97
5677,4.07,4.96
5678,4.07,4.96
5679,4.07,4.96
5680,4.07,4.96
5681,4.07,4.97
5682,4.07,4.97
5683,4.07,4.97
5684,4.07,4.97
5686,4.07,4.97
5687,4.07,4.97
5688,4.07,4.97
5689,4.07,4.97
5690,4.07,4.97
5691,4.07,4.97
5692,4.07,4.97
5693,4.07,4.96
5695,4.07,4.96
5696,4.07,4.96
5697,4.07,4.96
5698,4.07,4.96
5699,4.07,4.96
5700,4.07,4.95
5701,4.07,4.95
5702,4.07,4.95
5704,4.07,4.94
5705,4.07,4.94
5706,4.07,4.93
5707,4.07,4.93
5708,4.07,4.92
5709,4.06,4.92
5710,4.07,4.91
5711,4.07,4.90
5713,4.07,4.90
5714,4.06,4.89
5715,4.06,4.88
5716,4.06,4.88
5718,4.06,4.87
5719,4.06,4.86
5720,4.06,4.85
5721,4.06,4.85
5723,4.06,4.84
5724,4.06,4.83
5725,4.06,4.83
5726,4.06,4.82
5727,4.06,4.82
5728,4.06,4.81
5729,4.05,4.80
5730,4.05,4.80
5732,4.05,4.79
5733,4.05,4.79
5734,4.05,4.78
5735,4.05,4.78
5736,4.05,4.78
5737,4.05,4.77
5738,4.05,4.77
5739,4.04,4.76
5741,4.04,4.76
5742,4.04,4.75
5743,4.04,4.75
5744,4.04,4.75
5745,4.04,4.74
5746,4.04,4.74
5747,4.04,4.74
5748,4.04,4.73
5750,4.04,4.73
5751,4.04,4.73
5752,4.04,4.72
5753,4.04,4.72
5754,4.04,4.72
5755,4.04,4.71
5756,4.04,4.71
5757,4.04,4.71
5760,4.04,4.71
5761,4.04,4.71
5762,4.04,4.70
5763,4.04,4.70
5764,4.04,4.70
5765,4.04,4.70
5766,4.04,4.70
5767,4.04,4.70
5769,4.04,4.70
5770,4.04,4.70
5771,4.04,4.69
5772,4.04,4.69
5773,4.04,4.69
5774,4.04,4.69
5775,4.04,4.69
5776,4.04,4.69
5777,4.04,4.69
5779,4.04,4.69
5780,4.04,4.69
5781,4.04,4.69
5782,4.04,4.69
5783,4.04,4.69
5784,4.04,4.69
5785,4.04,4.69
5786,4.04,4.69
5788,4.04,4.69
5789,4.04,4.69
5790,4.04,4.69
5791,4.04,4.69
5792,4.04,4.69
5793,4.04,4.69
5794,4.04,4.70
5795,4.04,4.70
5796,4.04,4.70
5798,4.04,4.70
5799,4.04,4.70
5800,4.05,4.70
5801,4.05,4.70
5803,4.05,4.70
5804,4.05,4.70
5805,4.05,4.70
5806,4.05,4.70
5808,4.05,4.70
5809,4.05,4.70
5810,4.05,4.70
5811,4.05,4.70
5812,4.05,4.70
5813,4.05,4.70
5814,4.05,4.71
5815,4.05,4.71
5816,4.05,4.71
5818,4.05,4.71
5819,4.05,4.71
5820,4.05,4.71
5821,4.05,4.71
5822,4.05,4.71
5823,4.05,4.71
5824,4.05,4.71
5825,4.05,4.71
5827,4.05,4.71
5828,4.05,4.71
5829,4.05,4.71
5830,4.05,4.71
5831,4.05,4.71
5832,4.05,4.71
5833,4.05,4.71
5834,4.05,4.71
5836,4.05,4.70
5837,4.04,4.69
5838,4.04,4.69
5839,4.04,4.69
5840,4.05,4.69
5841,4.05,4.68
5842,4.05,4.65
5843,4.03,4.61
5846,4.01,4.58
5847,4.00,4.57
5848,3.99,4.54
5849,3.98,4.49
5850,3.95,4.45
5851,3.92,4.40
5852,3.89,4.35
5853,3.86,4.32
5855,3.84,4.31
5856,3.83,4.31
5857,3.83,4.31
5858,3.84,4.31
5859,3.84,4.29
5860,3.82,4.26
5861,3.80,4.22
5862,3.79,4.21
5864,3.78,4.18
5865,3.77,4.15
5866,3.75,4.12
5867,3.72,4.07
5868,3.70,4.03
5869,3.67,4.00
5870,3.65,3.99
5871,3.64,4.00
5873,3.65,4.01
5874,3.67,4.03
5875,3.69,4.02
5876,3.69,4.01
5877,3.68,3.98
5878,3.67,3.97
5879,3.67,3.97
5880,3.67,3.95
5882,3.66,3.92
5883,3.65,3.90
5884,3.63,3.87
5885,3.60,3.84
5886,3.59,3.83
5888,3.59,3.84
5889,3.59,3.86
5890,3.62,3.88
5892,3.64,3.90
5893,3.66,3.89
5894,3.66,3.88
5895,3.65,3.87
5896,3.65,3.87
5897,3.66,3.86
5898,3.66,3.84
5900,3.65,3.82
5901,3.63,3.79
5902,3.61,3.77
5903,3.60,3.75
5904,3.59,3.76
5905,3.59,3.77
5906,3.61,3.80
5907,3.64,3.82
5909,3.66,3.83
5910,3.67,3.82
5911,3.67,3.80
5912,3.66,3.79
5913,3.65,3.78
5914,3.64,3.76
5915,3.63,3.74
5916,3.61,3.72
5918,3.60,3.70
5919,3.58,3.68
5920,3.56,3.67
5921,3.56,3.68
5922,3.57,3.70
5923,3.59,3.73
5924,3.62,3.74
5925,3.64,3.74
5927,3.64,3.73
5928,3.63,3.72
5929,3.63,3.71
5931,3.62,3.70
5932,3.61,3.69
5933,3.59,3.67
5934,3.58,3.65
5935,3.56,3.64
5937,3.54,3.62
5938,3.54,3.63
5939,3.54,3.65
5940,3.57,3.68
5941,3.60,3.70
5942,3.62,3.71
5943,3.63,3.70
5945,3.63,3.70
5946,3.62,3.69
5947,3.62,3.68
5948,3.61,3.67
5949,3.60,3.65
5950,3.58,3.63
5951,3.57,3.61
5952,3.55,3.60
5954,3.53,3.60
5955,3.54,3.62
5956,3.56,3.64
5957,3.59,3.67
5958,3.61,3.69
5959,3.63,3.69
5960,3.63,3.69
5961,3.63,3.68
5963,3.62,3.67
5964,3.61,3.66
5965,3.60,3.64
5966,3.59,3.63
5967,3.57,3.61
5968,3.56,3.59
5969,3.54,3.59
5970,3.54,3.59
5972,3.55,3.62
5974,3.58,3.65
5975,3.61,3.68
5976,3.63,3.68
5977,3.64,3.68
5978,3.64,3.67
5979,3.63,3.67
5980,3.62,3.66
5982,3.62,3.65
5983,3.60,3.63
5984,3.59,3.61
5985,3.57,3.60
5986,3.56,3.58
5987,3.55,3.59
5988,3.55,3.61
5990,3.57,3.63
5991,3.60,3.67
5992,3.63,3.68
5993,3.64,3.68
5994,3.65,3.68
5995,3.64,3.67
5996,3.63,3.66
5997,3.62,3.65
5999,3.61,3.63
6000,3.60,3.62
6001,3.58,3.60
6002,3.57,3.58
6003,3.55,3.58
6004,3.55,3.59
6005,3.57,3.62
6007,3.59,3.65
6008,3.63,3.67
6009,3.64,3.68
6010,3.65,3.67
6011,3.64,3.67
6012,3.64,3.66
6013,3.63,3.65
6014,3.62,3.64
6017,3.61,3.62
6018,3.59,3.61
6019,3.58,3.59
6020,3.56,3.58
6021,3.55,3.59
6022,3.56,3.61
6023,3.59,3.64
6024,3.62,3.67
6026,3.64,3.68
6027,3.65,3.68
6028,3.65,3.67
6029,3.64,3.66
6030,3.63,3.64
6031,3.62,3.63
6032,3.60,3.61
6034,3.58,3.59
6035,3.57,3.58
6036,3.55,3.56
6037,3.54,3.56
6038,3.54,3.58
6039,3.56,3.61
6040,3.59,3.64
6041,3.62,3.65
6043,3.63,3.66
6044,3.63,3.65
6045,3.63,3.64
6046,3.62,3.63
6047,3.61,3.61
6048,3.59,3.60
6049,3.58,3.58
6051,3.56,3.57
6052,3.54,3.55
6053,3.53,3.54
6054,3.52,3.56
6055,3.54,3.58
6056,3.56,3.61
6057,3.60,3.64
6059,3.62,3.64
6061,3.62,3.64
6062,3.62,3.63
6063,3.61,3.62
6064,3.60,3.61
6065,3.59,3.59
6066,3.58,3.58
6067,3.56,3.56
6068,3.55,3.55
6070,3.53,3.54
6071,3.52,3.54
6072,3.52,3.56
6073,3.54,3.59
6074,3.58,3.62
6075,3.61,3.64
6076,3.62,3.64
6077,3.62,3.63
6079,3.61,3.62
6080,3.60,3.61
6081,3.59,3.59
6082,3.58,3.58
6083,3.57,3.56
6084,3.55,3.55
6085,3.53,3.53
6086,3.52,3.53
6088,3.52,3.54
6089,3.53,3.57
6090,3.56,3.61
6091,3.60,3.63
6092,3.62,3.63
6093,3.62,3.63
6094,3.62,3.62
6095,3.61,3.61
6097,3.60,3.60
6098,3.59,3.58
6099,3.57,3.57
6100,3.56,3.56
6102,3.54,3.54
6103,3.53,3.53
6104,3.52,3.54
6105,3.53,3.56
6107,3.55,3.59
6108,3.59,3.62
6109,3.61,3.63
6110,3.62,3.63
6111,3.62,3.63
6112,3.62,3.62
6113,3.61,3.60
6115,3.59,3.59
6116,3.58,3.58
6117,3.57,3.56
6118,3.55,3.55
6119,3.53,3.53
6120,3.52,3.53
6121,3.52,3.54
6122,3.54,3.58
6124,3.57,3.61
6125,3.60,3.63
6126,3.62,3.63
6127,3.62,3.63
6128,3.62,3.62
6129,3.61,3.61
6130,3.60,3.59
6131,3.59,3.58
6133,3.57,3.57
6134,3.56,3.55
6135,3.54,3.54
6136,3.52,3.52
6137,3.52,3.54
6138,3.53,3.56
6139,3.56,3.60
6140,3.59,3.62
6142,3.61,3.63
6144,3.62,3.63
6145,3.62,3.62
6146,3.62,3.61
6147,3.61,3.60
6148,3.59,3.59
6149,3.58,3.57
6150,3.56,3.56
6152,3.55,3.54
6153,3.53,3.53
6154,3.52,3.53
6155,3.52,3.55
6156,3.55,3.58
6157,3.58,3.61
6158,3.61,3.63
6159,3.62,3.63
6161,3.62,3.62
6162,3.62,3.61
6163,3.61,3.60
6164,3.60,3.59
6165,3.59,3.58
6166,3.57,3.56
6167,3.56,3.55
6169,3.54,3.53
6170,3.52,3.52
6171,3.52,3.54
6172,3.53,3.56
6173,3.56,3.59
6174,3.60,3.62
6175,3.62,3.63
6176,3.62,3.63
6178,3.62,3.62
6179,3.61,3.61
6180,3.60,3.60
6181,3.59,3.58
6182,3.58,3.57
6183,3.56,3.55
6184,3.54,3.54
6185,3.53,3.52
6188,3.52,3.53
6189,3.53,3.55
6190,3.55,3.58
6191,3.58,3.62
6192,3.61,3.63
6193,3.62,3.63
6194,3.62,3.62
6195,3.62,3.62
6197,3.61,3.60
6198,3.60,3.59
6199,3.58,3.57
6200,3.57,3.56
6201,3.55,3.55
6202,3.54,3.53
6203,3.52,3.52
6204,3.52,3.54
6206,3.54,3.57
6207,3.57,3.60
6208,3.60,3.63
6209,3.62,3.63
6210,3.63,3.63
6211,3.62,3.62
6212,3.62,3.61
6214,3.61,3.60
6215,3.59,3.58
6216,3.58,3.57
6217,3.56,3.55
6218,3.55,3.54
6219,3.53,3.52
6220,3.52,3.53
6221,3.53,3.56
6223,3.56,3.59
6224,3.59,3.62
6225,3.62,3.64
6226,3.63,3.63
6227,3.63,3.63
6228,3.62,3.62
6230,3.61,3.60
6231,3.60,3.59
6233,3.59,3.58
6234,3.57,3.56
6235,3.56,3.55
6236,3.54,3.52
6237,3.52,3.53
6238,3.53,3.55
6239,3.55,3.58
6240,3.58,3.61
6242,3.61,3.63
6243,3.63,3.64
6244,3.63,3.63
6245,3.63,3.62
6246,3.62,3.61
6247,3.61,3.59
6248,3.59,3.58
6249,3.58,3.57
6251,3.56,3.55
6252,3.55,3.54
6253,3.53,3.53
6254,3.53,3.54
6255,3.54,3.57
6256,3.57,3.60
6257,3.60,3.63
6258,3.63,3.64
6260,3.63,3.64
6261,3.63,3.63
6262,3.63,3.63
6263,3.62,3.62
6264,3.61,3.61
6265,3.59,3.59
6266,3.57,3.58
6268,3.56,3.56
6269,3.54,3.55
6270,3.53,3.55
6272,3.54,3.57
6273,3.56,3.60
6274,3.60,3.64
6275,3.62,3.65
6276,3.64,3.66
6278,3.64,3.65
6279,3.64,3.64
6280,3.63,3.63
6281,3.61,3.61
6282,3.60,3.60
6283,3.59,3.58
6284,3.57,3.57
6285,3.55,3.55
6287,3.54,3.54
6288,3.53,3.55
6289,3.55,3.58
6290,3.58,3.62
6291,3.61,3.64
6292,3.63,3.65
6293,3.63,3.64
6295,3.63,3.64
6296,3.63,3.62
6297,3.61,3.61
6298,3.60,3.59
6299,3.58,3.58
6300,3.57,3.56
6301,3.55,3.55
6302,3.54,3.53
6304,3.52,3.54
6305,3.53,3.56
6306,3.55,3.59
6307,3.59,3.62
6308,3.61,3.63
6309,3.62,3.63
6310,3.62,3.63
6311,3.62,3.62
6313,3.61,3.60
6315,3.59,3.59
6316,3.58,3.58
6317,3.56,3.56
6318,3.55,3.54
6319,3.53,3.53
6320,3.52,3.52
6321,3.51,3.54
6323,3.53,3.56
6324,3.56,3.60
6325,3.59,3.62
6326,3.60,3.62
6327,3.61,3.62
6328,3.60,3.61
6329,3.59,3.60
6331,3.58,3.58
6332,3.57,3.57
6333,3.56,3.55
6334,3.54,3.54
6335,3.53,3.52
6336,3.51,3.51
6337,3.50,3.51
6338,3.51,3.54
6340,3.53,3.57
6341,3.57,3.60
6342,3.59,3.61
6343,3.60,3.61
6344,3.60,3.60
6345,3.59,3.59
6346,3.58,3.58
6347,3.57,3.57
6349,3.56,3.55
6350,3.54,3.54
6351,3.53,3.52
6352,3.51,3.51
6353,3.50,3.50
6354,3.50,3.52
6355,3.52,3.55
6356,3.55,3.59
6359,3.58,3.60
6360,3.59,3.61
6361,3.59,3.60
6362,3.59,3.59
6363,3.58,3.58
6364,3.57,3.57
6365,3.56,3.56
6366,3.55,3.54
6368,3.53,3.53
6369,3.52,3.52
6370,3.50,3.50
6371,3.49,3.51
6372,3.51,3.54
6373,3.53,3.57
6374,3.57,3.60
6375,3.59,3.60
6377,3.60,3.60
6378,3.59,3.60
6379,3.59,3.59
6380,3.58,3.58
6381,3.57,3.56
6382,3.55,3.55
6383,3.54,3.54
6384,3.53,3.52
6386,3.51,3.51
6387,3.50,3.51
6388,3.50,3.52
6389,3.52,3.56
6390,3.55,3.59
6391,3.58,3.60
6392,3.60,3.61
6393,3.60,3.60
6395,3.59,3.59
6396,3.59,3.58
6397,3.58,3.57
6398,3.56,3.56
6400,3.55,3.54
6401,3.54,3.53
6402,3.52,3.52
6403,3.51,3.50
6405,3.50,3.52
6406,3.51,3.54
6407,3.54,3.58
6408,3.58,3.60
6409,3.60,3.61
6410,3.60,3.61
6411,3.60,3.60
6412,3.59,3.59
6414,3.59,3.58
6415,3.57,3.57
6416,3.56,3.56
6417,3.55,3.54
6418,3.53,3.52
6419,3.52,3.51
6420,3.50,3.51
6421,3.51,3.53
6423,3.53,3.56
6424,3.56,3.60
6425,3.59,3.61
6426,3.60,3.61
6427,3.61,3.61
6428,3.60,3.60
6429,3.59,3.59
6430,3.58,3.58
6432,3.57,3.56
6433,3.56,3.55
6434,3.54,3.53
6435,3.52,3.52
6436,3.51,3.51
6437,3.50,3.52
6438,3.52,3.55
6439,3.55,3.58
6441,3.58,3.60
6443,3.60,3.61
6444,3.61,3.61
6445,3.60,3.60
6446,3.60,3.59
6447,3.59,3.58
6448,3.58,3.57
6449,3.56,3.56
6451,3.55,3.54
6452,3.53,3.53
6453,3.52,3.51
6454,3.50,3.51
6455,3.51,3.53
6456,3.53,3.56
6457,3.57,3.60
6458,3.59,3.61
6460,3.60,3.61
6461,3.61,3.61
6462,3.60,3.60
6463,3.59,3.59
6464,3.58,3.57
6465,3.57,3.56
6466,3.56,3.55
6467,3.54,3.53
6469,3.52,3.52
6470,3.51,3.51
6471,3.51,3.52
6472,3.52,3.55
6473,3.55,3.58
6474,3.58,3.61
6475,3.60,3.61
6476,3.61,3.61
6478,3.60,3.60
6479,3.59,3.59
6480,3.59,3.58
6481,3.57,3.56
6482,3.56,3.55
6483,3.55,3.54
6484,3.53,3.52
6486,3.51,3.50
6488,3.50,3.51
6489,3.51,3.53
6490,3.53,3.57
6491,3.57,3.60
6492,3.59,3.61
6493,3.60,3.61
6494,3.60,3.61
6495,3.60,3.59
6497,3.59,3.58
6498,3.58,3.57
6499,3.56,3.55
6500,3.55,3.54
6501,3.53,3.53
6502,3.52,3.51
6503,3.50,3.51
6504,3.50,3.52
6506,3.52,3.55
6507,3.55,3.58
6508,3.58,3.60
6509,3.60,3.61
6510,3.60,3.60
6511,3.59,3.59
6512,3.59,3.58
6513,3.58,3.57
6515,3.57,3.56
6516,3.55,3.55
6517,3.54,3.53
6518,3.52,3.52
6519,3.51,3.50
6520,3.50,3.51
6521,3.50,3.53
6522,3.53,3.56
6524,3.56,3.59
6525,3.58,3.60
6526,3.59,3.60
6528,3.59,3.60
6529,3.59,3.59
6530,3.58,3.58
6531,3.57,3.56
6532,3.56,3.55
6534,3.54,3.54
6535,3.53,3.52
6536,3.51,3.51
6537,3.50,3.50
6538,3.49,3.51
6539,3.51,3.54
6540,3.54,3.57
6541,3.57,3.59
6543,3.58,3.59
6544,3.59,3.59
6545,3.58,3.58
6546,3.57,3.57
6547,3.56,3.56
6548,3.55,3.54
6549,3.54,3.53
6550,3.52,3.52
6552,3.51,3.50
6553,3.49,3.49
6554,3.48,3.50
6555,3.49,3.52
6556,3.51,3.55
6557,3.54,3.57
6558,3.56,3.58
6559,3.57,3.58
6561,3.57,3.58
6562,3.57,3.56
6563,3.56,3.55
6564,3.54,3.54
6565,3.53,3.53
6566,3.52,3.51
6567,3.51,3.50
6568,3.49,3.49
6571,3.48,3.48
6572,3.48,3.49
6573,3.49,3.52
6574,3.51,3.55
6575,3.54,3.56
6576,3.55,3.57
6577,3.56,3.56
6578,3.55,3.55
6580,3.54,3.54
6581,3.53,3.53
6582,3.52,3.52
6583,3.51,3.51
6584,3.50,3.49
6585,3.48,3.48
6586,3.47,3.48
6587,3.46,3.48
6589,3.47,3.50
6590,3.50,3.54
6591,3.52,3.56
6592,3.54,3.57
6593,3.56,3.57
6594,3.56,3.56
6595,3.55,3.55
6596,3.54,3.54
6598,3.54,3.53
6599,3.52,3.51
6600,3.51,3.51
6601,3.50,3.49
6602,3.48,3.48
6603,3.48,3.48
6604,3.48,3.50
6605,3.50,3.54
6607,3.53,3.57
6608,3.56,3.58
6609,3.58,3.58
6610,3.58,3.58
6611,3.58,3.57
6612,3.57,3.56
6614,3.56,3.55
6615,3.55,3.54
6617,3.54,3.52
6618,3.52,3.51
6619,3.51,3.50
6620,3.49,3.49
6621,3.49,3.51
6622,3.51,3.53
6623,3.54,3.57
6624,3.57,3.59
6626,3.59,3.60
6627,3.60,3.59
6628,3.60,3.59
6629,3.59,3.58
6630,3.58,3.56
6631,3.57,3.55
6632,3.55,3.53
6633,3.54,3.52
6635,3.52,3.51
6636,3.51,3.50
6637,3.50,3.51
6638,3.51,3.53
6639,3.54,3.56
6640,3.57,3.59
6641,3.60,3.60
6642,3.60,3.60
6644,3.61,3.60
6645,3.60,3.60
6646,3.59,3.57
6647,3.58,3.56
6648,3.57,3.55
6649,3.55,3.54
6650,3.54,3.52
6651,3.52,3.51
6653,3.51,3.51
6654,3.51,3.52
6656,3.53,3.55
6657,3.56,3.59
6658,3.59,3.60
6659,3.61,3.61
6660,3.61,3.61
6661,3.61,3.60
6663,3.60,3.59
6664,3.59,3.57
6665,3.58,3.56
6666,3.57,3.55
6667,3.55,3.53
6668,3.53,3.52
6669,3.52,3.51
6670,3.51,3.52
6672,3.53,3.54
6673,3.55,3.58
6674,3.59,3.60
6675,3.61,3.61
6676,3.62,3.61
6677,3.62,3.60
6678,3.61,3.59
6679,3.60,3.58
6681,3.59,3.57
6682,3.57,3.55
6683,3.56,3.54
6684,3.54,3.53
6685,3.53,3.51
6686,3.51,3.51
6687,3.52,3.53
6688,3.55,3.56
6690,3.58,3.60
6691,3.60,3.61
6692,3.62,3.61
6693,3.62,3.61
6694,3.62,3.60
6695,3.61,3.59
6696,3.60,3.57
6697,3.58,3.56
6700,3.57,3.55
6701,3.55,3.53
6702,3.54,3.52
6703,3.52,3.51
6704,3.52,3.53
6705,3.54,3.55
6706,3.56,3.59
6707,3.60,3.61
6709,3.62,3.62
6710,3.63,3.62
6711,3.62,3.61
6712,3.62,3.59
6713,3.60,3.58
6714,3.59,3.57
6715,3.58,3.56
6717,3.56,3.54
6718,3.55,3.53
6719,3.53,3.52
6720,3.52,3.52
6721,3.53,3.54
6722,3.55,3.58
6723,3.59,3.60
6724,3.61,3.62
6726,3.62,3.62
6727,3.62,3.62
6728,3.62,3.60
6729,3.61,3.59
6730,3.60,3.58
6731,3.58,3.57
6732,3.57,3.55
6733,3.55,3.54
6735,3.54,3.52
6736,3.52,3.51
6737,3.52,3.53
6738,3.54,3.56
6739,3.57,3.59
6740,3.60,3.61
6742,3.61,3.61
6743,3.62,3.61
6745,3.61,3.60
6746,3.61,3.59
6747,3.59,3.58
6748,3.58,3.56
6749,3.57,3.55
6750,3.55,3.53
6751,3.54,3.52
6752,3.52,3.51
6754,3.51,3.51
6755,3.52,3.53
6756,3.54,3.56
6757,3.56,3.59
6758,3.59,3.60
6759,3.59,3.59
6760,3.59,3.59
6761,3.59,3.58
6763,3.58,3.56
6764,3.56,3.55
6765,3.55,3.54
6766,3.53,3.52
6767,3.52,3.51
6768,3.50,3.50
6769,3.49,3.50
6770,3.50,3.52
6772,3.52,3.54
6773,3.55,3.58
6774,3.58,3.60
6775,3.60,3.60
6776,3.60,3.60
6777,3.60,3.59
6778,3.59,3.58
6779,3.58,3.57
6781,3.57,3.56
6782,3.56,3.54
6784,3.54,3.53
6785,3.53,3.51
6786,3.51,3.51
6787,3.51,3.52
6788,3.52,3.54
6789,3.55,3.58
6791,3.59,3.60
6792,3.61,3.62
6793,3.62,3.61
6794,3.62,3.61
6795,3.62,3.60
6796,3.61,3.59
6797,3.59,3.57
6798,3.58,3.56
6800,3.57,3.55
6801,3.55,3.53
6802,3.54,3.52
6803,3.52,3.52
6804,3.53,3.54
6805,3.56,3.57
6806,3.59,3.61
6807,3.62,3.63
6809,3.64,3.63
6810,3.64,3.63
6811,3.64,3.62
6812,3.63,3.60
6813,3.62,3.59
6814,3.60,3.58
6815,3.59,3.56
6816,3.57,3.54
6818,3.55,3.53
6819,3.54,3.53
6820,3.54,3.54
6821,3.56,3.57
6822,3.59,3.61
6823,3.62,3.63
6824,3.65,3.64
6825,3.66,3.64
6828,3.66,3.63
6829,3.65,3.64
6830,3.65,3.64
6831,3.65,3.62
6832,3.64,3.61
6833,3.62,3.60
6834,3.61,3.58
6836,3.59,3.58
6837,3.59,3.59
6838,3.61,3.62
6839,3.64,3.65
6840,3.68,3.69
6841,3.71,3.70
6842,3.72,3.70
6843,3.72,3.70
6845,3.72,3.70
6846,3.73,3.71
6847,3.73,3.70
6848,3.73,3.70
6849,3.71,3.68
6850,3.70,3.66
6851,3.68,3.65
6852,3.68,3.66
6854,3.69,3.68
6855,3.71,3.71
6856,3.74,3.74
6857,3.77,3.77
6858,3.79,3.77
6859,3.80,3.76
6860,3.79,3.77
6861,3.80,3.78
6863,3.81,3.78
6864,3.81,3.77
6865,3.80,3.76
6866,3.78,3.74
6867,3.77,3.72
6868,3.75,3.72
6870,3.75,3.74
6871,3.77,3.77
6873,3.80,3.80
6874,3.83,3.83
6875,3.86,3.84
6876,3.87,3.83
6877,3.86,3.83
6878,3.87,3.84
6879,3.88,3.85
6880,3.88,3.84
6882,3.87,3.83
6883,3.86,3.81
6884,3.84,3.79
6885,3.82,3.79
6886,3.82,3.80
6887,3.84,3.83
6888,3.86,3.85
6889,3.88,3.88
6891,3.91,3.91
6892,3.94,3.94
6893,3.97,3.97
6894,4.00,4.00
6895,4.04,4.03
6896,4.07,4.07
6897,4.10,4.10
6898,4.13,4.13
6900,4.15,4.15
6901,4.18,4.18
6902,4.21,4.22
6903,4.24,4.24
6904,4.27,4.27
6905,4.30,4.30
6906,4.32,4.33
6907,4.35,4.35
6909,4.37,4.37
6910,4.39,4.40
6912,4.41,4.42
6913,4.42,4.44
6914,4.44,4.46
6915,4.46,4.48
6916,4.47,4.50
6917,4.48,4.51
6919,4.49,4.53
6920,4.50,4.55
6921,4.51,4.56
6922,4.52,4.57
6923,4.52,4.58
6924,4.52,4.58
6925,4.52,4.59
6927,4.52,4.60
6928,4.53,4.61
6929,4.52,4.61
6930,4.52,4.62
6931,4.52,4.62
6932,4.51,4.63
6933,4.51,4.63
6934,4.50,4.63
6936,4.50,4.63
6937,4.49,4.64
6938,4.48,4.64
6939,4.48,4.64
6940,4.47,4.64
6941,4.46,4.64
6942,4.45,4.65
6943,4.45,4.65
6945,4.44,4.65
6946,4.43,4.65
6947,4.42,4.65
6948,4.42,4.65
6949,4.41,4.65
6950,4.40,4.65
6951,4.39,4.66
6952,4.38,4.66
6955,4.38,4.66
6956,4.37,4.66
6957,4.37,4.66
6958,4.36,4.66
6959,4.36,4.66
6960,4.35,4.66
6961,4.35,4.67
6962,4.35,4.67
6964,4.34,4.67
6965,4.34,4.67
6966,4.33,4.67
6967,4.33,4.67
6968,4.32,4.68
6969,4.32,4.68
6970,4.31,4.68
6971,4.31,4.68
6973,4.31,4.68
6974,4.30,4.69
6975,4.30,4.69
6976,4.30,4.69
6977,4.29,4.70
6978,4.29,4.70
6979,4.29,4.70
6980,4.29,4.71
6982,4.28,4.71
6983,4.28,4.71
6984,4.28,4.72
6985,4.28,4.72
6986,4.28,4.72
6987,4.27,4.73
6988,4.27,4.73
6989,4.27,4.73
6991,4.27,4.74
6992,4.27,4.74
6993,4.27,4.74
6994,4.26,4.75
6995,4.26,4.75
6996,4.26,4.75
6998,4.26,4.76
7000,4.26,4.76
7001,4.26,4.76
7002,4.26,4.77
7003,4.26,4.77
7004,4.26,4.78
7005,4.26,4.78
7006,4.26,4.78
7008,4.25,4.78
7009,4.25,4.78
7010,4.25,4.79
7011,4.25,4.79
7012,4.25,4.80
7013,4.25,4.80
7014,4.25,4.80
7015,4.25,4.80
7017,4.25,4.81
7018,4.25,4.81
7019,4.24,4.81
7020,4.24,4.82
7021,4.24,4.82
7022,4.24,4.83
7023,4.24,4.83
7024,4.24,4.83
7026,4.24,4.84
7027,4.24,4.84
7028,4.24,4.85
7029,4.24,4.85
7030,4.24,4.85
7031,4.23,4.86
7032,4.23,4.86
7033,4.23,4.86
7035,4.23,4.87
7036,4.23,4.87
7037,4.23,4.88
7038,4.23,4.88
7040,4.23,4.88
7041,4.23,4.88
7042,4.23,4.89
7043,4.22,4.89
7045,4.22,4.89
7046,4.22,4.89
7047,4.22,4.90
7048,4.22,4.90
7049,4.22,4.90
7050,4.22,4.90
7051,4.22,4.90
7052,4.22,4.91
7054,4.22,4.91
7055,4.21,4.91
7056,4.21,4.91
7057,4.21,4.91
7058,4.21,4.91
7059,4.21,4.92
7060,4.21,4.92
7061,4.21,4.92
7063,4.21,4.92
7064,4.21,4.92
7065,4.21,4.92
7066,4.21,4.92
7067,4.21,4.93
7068,4.20,4.93
7069,4.20,4.93
7070,4.20,4.93
7072,4.20,4.93
7073,4.20,4.93
7074,4.20,4.93
7075,4.20,4.93
7076,4.20,4.93
7077,4.20,4.93
7078,4.20,4.93
7079,4.20,4.94
7081,4.20,4.94
7083,4.20,4.94
7084,4.20,4.94
7085,4.19,4.94
7086,4.19,4.94
7087,4.19,4.94
7088,4.19,4.94
7090,4.19,4.94
7091,4.19,4.94
7092,4.19,4.94
7093,4.19,4.94
7094,4.19,4.95
7095,4.19,4.95
7096,4.19,4.95
7097,4.19,4.95
7099,4.19,4.95
7100,4.19,4.95
7101,4.19,4.95
7102,4.19,4.95
7103,4.19,4.95
7104,4.19,4.95
7105,4.19,4.95
7106,4.19,4.95
7108,4.19,4.95
7109,4.19,4.95
7110,4.19,4.95
7111,4.19,4.95
7112,4.19,4.95
7113,4.19,4.95
7114,4.18,4.96
7115,4.18,4.96
7117,4.18,4.96
7118,4.18,4.96
7119,4.18,4.96
7120,4.18,4.96
7121,4.18,4.96
7122,4.18,4.96
7123,4.18,4.96
7126,4.18,4.96
7127,4.18,4.96
7128,4.18,4.96
7129,4.18,4.96
7130,4.18,4.96
7131,4.18,4.96
7132,4.18,4.96
7133,4.18,4.96
7135,4.18,4.96
7136,4.18,4.96
7137,4.18,4.96
7138,4.18,4.96
7139,4.18,4.96
7140,4.18,4.96
7141,4.17,4.96
7143,4.17,4.96
7144,4.17,4.96
7145,4.17,4.96
7146,4.17,4.96
7147,4.17,4.96
7148,4.17,4.96
7149,4.17,4.96
7150,4.17,4.96
7152,4.17,4.96
7153,4.17,4.96
7154,4.17,4.96
7155,4.17,4.96
7156,4.17,4.96
7157,4.17,4.96
7158,4.17,4.96
7159,4.17,4.97
7161,4.17,4.96
7162,4.17,4.96
7163,4.17,4.96
7164,4.17,4.96
7165,4.17,4.96
7166,4.17,4.96
7168,4.17,4.96
7169,4.17,4.96
7171,4.17,4.96
7172,4.17,4.96
7173,4.17,4.96
7174,4.17,4.96
7175,4.17,4.96
7176,4.17,4.96
7177,4.17,4.97
7178,4.17,4.97
7180,4.17,4.96
7181,4.17,4.96
7182,4.17,4.96
7183,4.16,4.96
7184,4.17,4.96
7185,4.17,4.96
7186,4.17,4.97
7187,4.17,4.97
7189,4.17,4.96
7190,4.17,4.97
7191,4.17,4.96
7192,4.17,4.96
7193,4.16,4.96
7194,4.16,4.96
7195,4.16,4.96
7196,4.16,4.96
7198,4.16,4.96
7199,4.16,4.97
7200,4.16,4.97
7201,4.16,4.96
7202,4.16,4.96
7203,4.16,4.96
7204,4.16,4.97
7206,4.16,4.97
7207,4.16,4.97
7208,4.16,4.97
7209,4.16,4.97
7211,4.16,4.97
7212,4.16,4.97
7213,4.16,4.97
7214,4.16,4.97
7216,4.16,4.97
7217,4.16,4.97
7218,4.16,4.97
7219,4.16,4.97
7220,4.16,4.96
7221,4.16,4.97
7222,4.16,4.97
7224,4.16,4.97
7225,4.16,4.97
7226,4.16,4.97
7227,4.16,4.97
7228,4.16,4.97
7229,4.16,4.97
7230,4.16,4.97
7231,4.16,4.97
7233,4.16,4.97
7234,4.16,4.96
7235,4.16,4.97
7236,4.16,4.97
7237,4.16,4.97
7238,4.16,4.97
7239,4.16,4.97
7241,4.16,4.97
7242,4.16,4.97
7243,4.16,4.97
7244,4.16,4.97
7245,4.16,4.96
7246,4.16,4.97
7247,4.16,4.97
7249,4.16,4.97
7250,4.16,4.97
7251,4.16,4.97
7252,4.16,4.97
7254,4.16,4.96
7255,4.16,4.97
7256,4.16,4.97
7258,4.16,4.97
7259,4.16,4.97
7260,4.15,4.97
7261,4.15,4.96
7262,4.15,4.97
7263,4.15,4.97
7264,4.15,4.97
7265,4.15,4.97
7267,4.15,4.97
7268,4.15,4.97
7269,4.15,4.97
7270,4.15,4.97
7271,4.15,4.97
7272,4.15,4.97
7273,4.16,4.97
7275,4.15,4.97
7276,4.15,4.97
7277,4.15,4.97
7278,4.15,4.97
7279,4.15,4.97
7280,4.15,4.97
7281,4.15,4.96
7282,4.15,4.96
7284,4.15,4.96
7285,4.15,4.96
7286,4.15,4.96
7287,4.15,4.96
7288,4.15,4.95
7289,4.15,4.95
7290,4.15,4.94
7291,4.16,4.94
7293,4.15,4.94
7294,4.15,4.93
7296,4.15,4.93
7297,4.15,4.92
7298,4.15,4.92
7299,4.15,4.91
7300,4.16,4.91
7301,4.15,4.90
7303,4.15,4.89
7304,4.15,4.89
7305,4.15,4.88
7306,4.15,4.88
7307,4.15,4.87
7308,4.15,4.86
7309,4.15,4.85
7310,4.15,4.85
7312,4.15,4.84
7313,4.15,4.83
7314,4.15,4.83
7315,4.14,4.82
7316,4.14,4.81
7317,4.14,4.80
7318,4.14,4.79
7319,4.14,4.79
7321,4.14,4.78
7322,4.14,4.78
7323,4.14,4.77
7324,4.14,4.76
7325,4.14,4.75
7326,4.14,4.74
7327,4.13,4.74
7329,4.13,4.73
7330,4.13,4.72
7331,4.13,4.71
7332,4.13,4.71
7333,4.13,4.70
7334,4.13,4.69
7335,4.13,4.68
7336,4.13,4.68
7339,4.13,4.67
7340,4.13,4.66
7341,4.13,4.65
7342,4.13,4.65
7343,4.13,4.64
7344,4.13,4.63
7345,4.13,4.62
7347,4.12,4.62
7348,4.12,4.61
7349,4.12,4.60
7350,4.12,4.60
7351,4.12,4.59
7352,4.12,4.58
7353,4.12,4.58
7354,4.12,4.57
7356,4.12,4.57
7357,4.12,4.56
7358,4.12,4.56
7359,4.12,4.55
7360,4.12,4.55
7361,4.12,4.54
7362,4.12,4.53
7364,4.12,4.53
7365,4.11,4.52
7366,4.12,4.52
7367,4.12,4.51
7368,4.11,4.51
7369,4.11,4.50
7370,4.11,4.50
7371,4.11,4.49
7373,4.11,4.49
7374,4.12,4.48
7375,4.11,4.48
7376,4.12,4.47
7377,4.11,4.47
7378,4.11,4.46
7379,4.12,4.46
7380,4.12,4.46
7383,4.11,4.45
7384,4.11,4.45
7385,4.11,4.44
7386,4.11,4.44
7387,4.11,4.44
7388,4.12,4.43
7389,4.12,4.43
7391,4.12,4.43
7392,4.12,4.42
7393,4.12,4.42
7394,4.12,4.42
7395,4.12,4.41
7396,4.12,4.41
7397,4.12,4.41
7398,4.12,4.40
7400,4.12,4.40
7401,4.12,4.40
7402,4.12,4.39
7403,4.12,4.39
7404,4.12,4.39
7405,4.12,4.38
7406,4.12,4.38
7408,4.12,4.38
7409,4.12,4.38
7410,4.12,4.37
7411,4.12,4.37
7412,4.12,4.37
7413,4.12,4.37
7414,4.12,4.36
7415,4.12,4.36
7417,4.12,4.36
7418,4.12,4.36
7419,4.12,4.36
7420,4.12,4.35
7421,4.12,4.35
7422,4.12,4.35
7424,4.12,4.35
7426,4.12,4.35
7427,4.12,4.35
7428,4.12,4.35
7429,4.12,4.35
7430,4.12,4.34
7431,4.12,4.34
7432,4.12,4.34
7433,4.12,4.34
7435,4.12,4.34
7436,4.12,4.33
7437,4.12,4.33
7438,4.12,4.33
7439,4.12,4.33
7440,4.12,4.33
7441,4.12,4.33
7443,4.12,4.33
7444,4.12,4.33
7445,4.12,4.33
7446,4.12,4.33
7447,4.12,4.33
7448,4.12,4.32
7449,4.12,4.32
7451,4.12,4.32
7452,4.12,4.32
7453,4.12,4.32
7454,4.12,4.32
7455,4.12,4.32
7456,4.12,4.32
7457,4.12,4.32
7458,4.12,4.32
7460,4.12,4.32
7461,4.12,4.32
7462,4.12,4.32
7463,4.12,4.32
7464,4.12,4.32
7465,4.12,4.32
7467,4.12,4.32
7469,4.12,4.32
7470,4.12,4.32
7471,4.12,4.32
7472,4.12,4.32
7473,4.12,4.32
7474,4.12,4.32
7475,4.12,4.32
7477,4.12,4.32
7478,4.12,4.32
7479,4.12,4.32
7480,4.12,4.32
7481,4.12,4.32
7482,4.12,4.32
7483,4.12,4.32
7485,4.12,4.32
7486,4.12,4.32
7487,4.12,4.32
7488,4.13,4.32
7489,4.12,4.32
7490,4.12,4.32
7491,4.12,4.32
7493,4.13,4.32
7494,4.13,4.32
7495,4.13,4.32
7496,4.13,4.32
7497,4.13,4.32
7498,4.13,4.32
7499,4.13,4.32
7500,4.13,4.32
7502,4.13,4.32
7503,4.13,4.32
7504,4.13,4.32
7505,4.13,4.32
7506,4.13,4.33
7507,4.13,4.33
7508,4.13,4.33
7511,4.13,4.33
7512,4.13,4.33
7513,4.13,4.33
7514,4.12,4.33
7515,4.12,4.33
7516,4.13,4.33
7517,4.13,4.33
7519,4.13,4.33
7520,4.13,4.33
7521,4.13,4.33
7522,4.13,4.33
7523,4.13,4.33
7524,4.13,4.33
7525,4.13,4.33
7526,4.13,4.33
7528,4.13,4.34
7529,4.12,4.34
7530,4.12,4.34
7531,4.12,4.34
7532,4.12,4.34
7533,4.12,4.34
7534,4.12,4.34
7536,4.12,4.34
7537,4.12,4.34
7538,4.12,4.34
7539,4.12,4.34
7540,4.12,4.34
7541,4.12,4.34
7542,4.12,4.34
7544,4.12,4.34
7545,4.12,4.34
7546,4.12,4.34
7547,4.12,4.34
7548,4.12,4.34
7549,4.12,4.34
7550,4.12,4.34
7552,4.12,4.34
7554,4.12,4.34
7555,4.12,4.34
7556,4.12,4.34
7557,4.12,4.34
7558,4.12,4.34
7559,4.12,4.34
7560,4.12,4.34
7562,4.12,4.34
7563,4.12,4.34
7564,4.12,4.34
7565,4.12,4.34
7566,4.12,4.34
7567,4.12,4.34
7568,4.12,4.35
7570,4.12,4.35
7571,4.12,4.35
7572,4.12,4.35
7573,4.12,4.35
7574,4.12,4.35
7575,4.12,4.35
7576,4.12,4.35
7577,4.12,4.36
7579,4.12,4.36
7580,4.12,4.36
7581,4.12,4.36
7582,4.12,4.37
7583,4.12,4.37
7584,4.11,4.37
7585,4.12,4.37
7587,4.12,4.37
7588,4.11,4.38
7589,4.11,4.38
7590,4.11,4.38
7591,4.11,4.39
7592,4.11,4.39
7593,4.11,4.39
7595,4.11,4.40
7597,4.11,4.40
7598,4.11,4.40
7599,4.11,4.41
7600,4.11,4.41
7601,4.11,4.41
7602,4.11,4.41
7603,4.11,4.42
7605,4.11,4.42
7606,4.11,4.42
7607,4.11,4.43
7608,4.11,4.43
7609,4.11,4.43
7610,4.11,4.44
7611,4.11,4.44
7612,4.11,4.44
7614,4.11,4.45
7615,4.11,4.45
7616,4.11,4.45
7617,4.11,4.45
7618,4.11,4.46
7619,4.11,4.46
7620,4.11,4.47
7622,4.11,4.47
7623,4.11,4.47
7624,4.11,4.48
7625,4.11,4.48
7626,4.11,4.48
7627,4.11,4.48
7628,4.11,4.49
7629,4.11,4.49
7631,4.11,4.49
7632,4.11,4.50
7633,4.11,4.50
7634,4.10,4.50
7635,4.11,4.51
7636,4.11,4.51
7638,4.11,4.51
7639,4.10,4.52
7641,4.10,4.52
7642,4.10,4.52
7643,4.10,4.53
7644,4.10,4.53
7645,4.10,4.53
7646,4.10,4.53
7647,4.10,4.54
7649,4.10,4.54
7650,4.10,4.54
7651,4.10,4.54
7652,4.10,4.55
7653,4.10,4.55
7654,4.10,4.55
7655,4.10,4.55
7656,4.10,4.56
7658,4.10,4.56
7659,4.10,4.56
7660,4.10,4.57
7661,4.10,4.57
7662,4.10,4.57
7663,4.10,4.57
7664,4.10,4.57
7665,4.10,4.57
7667,4.10,4.58
7668,4.10,4.58
7669,4.10,4.58
7670,4.10,4.58
7671,4.10,4.58
7672,4.10,4.58
7673,4.10,4.59
7674,4.10,4.59
7676,4.10,4.59
7677,4.10,4.59
7678,4.10,4.59
7680,4.10,4.60
7681,4.10,4.60
7682,4.10,4.60
7683,4.10,4.60
7684,4.10,4.61
7686,4.10,4.61
7687,4.10,4.61
7688,4.10,4.61
7689,4.10,4.62
7690,4.10,4.62
7691,4.10,4.63
7692,4.10,4.63
7693,4.10,4.63
7695,4.10,4.64
7696,4.10,4.64
7697,4.10,4.65
7698,4.10,4.65
7699,4.10,4.65
7700,4.10,4.66
7701,4.10,4.66
7702,4.10,4.66
7704,4.10,4.67
7705,4.10,4.67
7706,4.10,4.67
7707,4.10,4.68
7708,4.10,4.68
7709,4.10,4.68
7710,4.10,4.69
7711,4.10,4.69
7713,4.10,4.69
7714,4.10,4.69
7715,4.10,4.70
7716,4.10,4.70
7717,4.10,4.70
7718,4.10,4.71
7719,4.10,4.71
7720,4.10,4.71
7723,4.10,4.71
7724,4.10,4.72
7725,4.10,4.72
7726,4.10,4.72
7727,4.10,4.73
7728,4.10,4.73
7729,4.10,4.73
7730,4.10,4.73
7732,4.10,4.74
7733,4.09,4.74
7734,4.09,4.74
7735,4.09,4.74
7736,4.09,4.75
7737,4.09,4.75
7738,4.09,4.75
7739,4.09,4.75
7741,4.09,4.75
7742,4.09,4.76
7743,4.09,4.76
7744,4.09,4.76
7745,4.09,4.76
7746,4.09,4.76
7747,4.09,4.77
7748,4.09,4.77
7750,4.09,4.77
7751,4.09,4.77
7752,4.09,4.78
7753,4.09,4.78
7754,4.09,4.78
7755,4.09,4.78
7756,4.09,4.79
7757,4.09,4.79
7759,4.09,4.79
7760,4.09,4.80
7761,4.09,4.80
7762,4.09,4.81
7763,4.09,4.81
7764,4.09,4.82
7766,4.09,4.82
7767,4.09,4.83
7769,4.09,4.83
7770,4.09,4.83
7771,4.09,4.84
7772,4.09,4.85
7773,4.09,4.85
7774,4.09,4.85
7775,4.09,4.86
7776,4.09,4.86
7778,4.09,4.87
7779,4.09,4.87
7780,4.09,4.88
7781,4.09,4.88
7782,4.09,4.88
7783,4.09,4.88
7784,4.09,4.89
7785,4.09,4.89
7786,4.09,4.89
7788,4.09,4.89
7789,4.08,4.90
7790,4.08,4.90
7791,4.08,4.90
7792,4.08,4.90
7793,4.08,4.90
7794,4.08,4.91
7795,4.09,4.91
7797,4.08,4.91
7798,4.08,4.91
7799,4.08,4.91
7800,4.08,4.92
7801,4.08,4.92
7802,4.08,4.92
7803,4.08,4.92
7804,4.08,4.92
7806,4.08,4.92
7808,4.08,4.92
7809,4.08,4.93
7810,4.08,4.93
7811,4.08,4.93
7812,4.08,4.93
7813,4.08,4.93
7814,4.08,4.93
7816,4.08,4.93
7817,4.08,4.93
7818,4.08,4.93
7819,4.08,4.93
7820,4.08,4.93
7821,4.08,4.92
7822,4.08,4.92
7823,4.08,4.92
7825,4.08,4.92
7826,4.08,4.92
7827,4.08,4.92
7828,4.08,4.91
7829,4.08,4.91
7830,4.08,4.91
7831,4.08,4.91
7832,4.08,4.91
7834,4.08,4.90
7835,4.08,4.90
7836,4.08,4.90
7837,4.08,4.89
7838,4.08,4.89
7839,4.08,4.89
7840,4.08,4.88
7841,4.08,4.88
7843,4.08,4.88
7844,4.08,4.87
7845,4.08,4.87
7846,4.08,4.87
7847,4.08,4.87
7848,4.08,4.86
7849,4.07,4.86
7851,4.07,4.85
7853,4.07,4.85
7854,4.07,4.85
7855,4.07,4.85
7856,4.07,4.84
7857,4.07,4.84
7858,4.07,4.84
7859,4.07,4.83
7860,4.07,4.83
7861,4.07,4.83
7863,4.07,4.83
7864,4.07,4.82
7865,4.07,4.82
7866,4.07,4.82
7867,4.07,4.81
7868,4.07,4.81
7869,4.07,4.81
7870,4.07,4.81
7872,4.07,4.81
7873,4.07,4.81
7874,4.06,4.80
7875,4.06,4.80
7876,4.07,4.80
7877,4.06,4.80
7878,4.06,4.80
7879,4.06,4.80
7881,4.06,4.80
7882,4.06,4.79
7883,4.06,4.79
7884,4.06,4.79
7885,4.06,4.79
7886,4.06,4.79
7887,4.06,4.79
7888,4.06,4.79
7889,4.06,4.79
7891,4.06,4.78
7892,4.06,4.78
7894,4.06,4.78
7895,4.06,4.78
7896,4.06,4.78
7897,4.06,4.78
7898,4.06,4.78
7899,4.06,4.78
7901,4.06,4.78
7902,4.06,4.78
7903,4.06,4.78
7904,4.06,4.78
7905,4.06,4.78
7906,4.06,4.78
7907,4.06,4.78
7908,4.06,4.78
7909,4.06,4.78
7911,4.06,4.78
7912,4.06,4.78
7913,4.06,4.78
7914,4.06,4.78
7915,4.06,4.78
7916,4.06,4.78
7917,4.06,4.78
7918,4.06,4.78
7920,4.06,4.78
7921,4.06,4.78
7922,4.06,4.78
7923,4.06,4.78
7924,4.06,4.78
7925,4.06,4.78
7926,4.06,4.78
7927,4.06,4.79
7928,4.06,4.78
7930,4.06,4.78
7931,4.06,4.78
7932,4.06,4.78
7933,4.06,4.78
7934,4.06,4.78
7936,4.06,4.78
7937,4.06,4.78
7938,4.06,4.78
7940,4.06,4.78
7941,4.06,4.78
7942,4.06,4.78
7943,4.06,4.79
7944,4.06,4.78
7945,4.06,4.78
7946,4.06,4.78
7947,4.06,4.78
7949,4.06,4.78
7950,4.06,4.78
7951,4.06,4.78
7952,4.06,4.78
7953,4.06,4.78
7954,4.06,4.78
7955,4.06,4.79
7956,4.06,4.79
7957,4.06,4.79
7959,4.06,4.78
7960,4.06,4.79
7961,4.06,4.79
7962,4.06,4.79
7963,4.06,4.79
7964,4.06,4.79
7965,4.06,4.79
7966,4.06,4.79
7968,4.06,4.79
7969,4.06,4.79
7970,4.06,4.79
7971,4.06,4.79
7972,4.06,4.79
7973,4.06,4.79
7974,4.06,4.79
7975,4.06,4.79
7977,4.06,4.79
7979,4.06,4.79
7980,4.06,4.79
7981,4.06,4.79
7982,4.06,4.79
7983,4.06,4.79
7984,4.06,4.79
7986,4.06,4.79
7987,4.06,4.79
7988,4.06,4.79
7989,4.07,4.79
7990,4.07,4.78
7991,4.06,4.74
7992,4.05,4.70
7993,4.03,4.68
7995,4.03,4.67
7996,4.02,4.64
7997,4.01,4.59
7998,3.98,4.55
7999,3.95,4.49
8000,3.91,4.44
8001,3.89,4.42
8002,3.88,4.40
8004,3.87,4.40
8005,3.87,4.40
8006,3.87,4.40
8007,3.87,4.38
8008,3.85,4.35
8009,3.83,4.32
8010,3.82,4.31
8011,3.82,4.29
8013,3.81,4.25
8014,3.79,4.21
8015,3.76,4.17
8016,3.73,4.13
8017,3.70,4.10
8018,3.69,4.09
8019,3.69,4.09
8020,3.70,4.11
8023,3.70,4.12
8024,3.72,4.11
8025,3.72,4.09
8026,3.70,4.07
8027,3.70,4.06
8028,3.70,4.05
8029,3.70,4.03
8030,3.69,4.00
8032,3.68,3.97
8033,3.66,3.94
8034,3.63,3.91
8035,3.62,3.90
8036,3.62,3.91
8037,3.62,3.92
8038,3.64,3.95
8039,3.67,3.96
8041,3.68,3.95
8042,3.68,3.93
8043,3.68,3.92
8044,3.68,3.92
8045,3.68,3.91
8046,3.67,3.89
8047,3.66,3.87
8048,3.65,3.84
8050,3.63,3.81
8051,3.61,3.80
8052,3.60,3.80
8053,3.61,3.82
8054,3.63,3.84
8055,3.65,3.87
8056,3.67,3.87
8057,3.68,3.86
8059,3.68,3.85
8060,3.67,3.84
8061,3.68,3.84
8062,3.68,3.82
8064,3.67,3.80
8065,3.65,3.78
8066,3.64,3.76
8067,3.62,3.74
8069,3.60,3.74
8070,3.61,3.75
8071,3.62,3.78
8072,3.65,3.81
8073,3.68,3.82
8074,3.69,3.82
8075,3.69,3.81
8076,3.69,3.80
8078,3.69,3.80
8079,3.69,3.80
8080,3.68,3.78
8081,3.67,3.76
8082,3.66,3.74
8083,3.64,3.72
8084,3.62,3.71
8085,3.62,3.72
8087,3.63,3.74
8088,3.65,3.77
8089,3.68,3.80
8090,3.70,3.80
8091,3.70,3.79
8092,3.70,3.78
8093,3.70,3.78
8094,3.70,3.78
8096,3.69,3.77
8097,3.69,3.75
8098,3.67,3.73
8099,3.65,3.71
8100,3.63,3.69
8101,3.62,3.70
8102,3.62,3.71
8103,3.64,3.73
8105,3.67,3.77
8107,3.69,3.78
8108,3.70,3.78
8109,3.70,3.77
8110,3.70,3.76
8111,3.69,3.75
8112,3.69,3.74
8113,3.67,3.72
8115,3.66,3.70
8116,3.64,3.69
8117,3.62,3.67
8118,3.60,3.65
8119,3.59,3.66
8120,3.60,3.68
8121,3.62,3.71
8122,3.65,3.73
8124,3.67,3.74
8125,3.67,3.73
8126,3.67,3.72
8127,3.66,3.71
8128,3.65,3.70
8129,3.64,3.68
8130,3.62,3.67
8132,3.61,3.65
8133,3.59,3.63
8134,3.57,3.61
8135,3.55,3.61
8136,3.56,3.63
8137,3.57,3.66
8138,3.60,3.69
8139,3.63,3.70
8141,3.64,3.70
8142,3.64,3.69
8143,3.64,3.68
8144,3.63,3.67
8145,3.62,3.66
8146,3.61,3.64
8147,3.59,3.63
8148,3.58,3.61
8151,3.56,3.59
8152,3.54,3.58
8153,3.54,3.60
8154,3.55,3.63
8155,3.58,3.66
8156,3.61,3.68
8157,3.63,3.68
8159,3.64,3.68
8160,3.63,3.67
8161,3.63,3.66
8162,3.62,3.65
8163,3.61,3.64
8164,3.60,3.62
8165,3.58,3.61
8166,3.56,3.59
8168,3.55,3.58
8169,3.54,3.58
8170,3.55,3.61
8171,3.57,3.64
8172,3.60,3.67
8173,3.63,3.68
8174,3.64,3.68
8175,3.64,3.67
8177,3.63,3.66
8178,3.63,3.65
8179,3.62,3.64
8180,3.61,3.63
8181,3.59,3.61
8182,3.58,3.59
8183,3.56,3.58
8185,3.55,3.58
8186,3.55,3.59
8187,3.57,3.62
8188,3.60,3.66
8189,3.63,3.67
8190,3.64,3.68
8192,3.65,3.67
8193,3.64,3.66
8195,3.64,3.65
8196,3.63,3.64
8197,3.62,3.63
8198,3.60,3.62
8199,3.59,3.60
8200,3.57,3.58
8201,3.56,3.58
8202,3.55,3.58
8204,3.56,3.61
8205,3.59,3.64
8206,3.62,3.67
8207,3.64,3.68
8208,3.65,3.67
8209,3.65,3.67
8210,3.64,3.66
8211,3.64,3.65
8213,3.63,3.64
8214,3.61,3.62
8215,3.60,3.61
8216,3.58,3.59
8217,3.56,3.57
8218,3.55,3.58
8219,3.56,3.60
8220,3.58,3.63
8222,3.61,3.66
8223,3.64,3.67
8224,3.65,3.68
8225,3.65,3.67
8226,3.65,3.66
8227,3.64,3.65
8228,3.63,3.64
8230,3.62,3.63
8231,3.60,3.61
8232,3.59,3.60
8233,3.57,3.58
8235,3.56,3.57
8236,3.55,3.59
8237,3.57,3.61
8238,3.59,3.64
8240,3.63,3.67
8241,3.64,3.67
8242,3.65,3.67
8243,3.65,3.66
8244,3.64,3.65
8245,3.63,3.63
8246,3.61,3.62
8247,3.60,3.60
8249,3.58,3.58
8250,3.56,3.56
8251,3.54,3.55
8252,3.53,3.56
8253,3.54,3.58
8254,3.56,3.61
8255,3.59,3.64
8256,3.62,3.65
8258,3.63,3.65
8259,3.63,3.64
8260,3.62,3.63
8261,3.61,3.62
8262,3.60,3.60
8263,3.58,3.59
8264,3.57,3.57
8266,3.55,3.56
8267,3.53,3.54
8268,3.52,3.53
8269,3.52,3.55
8270,3.54,3.58
8271,3.57,3.61
8272,3.60,3.63
8273,3.61,3.64
8275,3.62,3.63
8276,3.61,3.62
8278,3.60,3.61
8279,3.59,3.60
8280,3.58,3.58
8281,3.57,3.57
8282,3.55,3.55
8283,3.53,3.54
8285,3.52,3.52
8286,3.51,3.53
8287,3.52,3.56
8288,3.55,3.59
8289,3.58,3.61
8290,3.60,3.62
8291,3.61,3.62
8292,3.61,3.62
8294,3.60,3.61
8295,3.59,3.59
8296,3.58,3.58
8297,3.57,3.56
8298,3.55,3.55
8299,3.54,3.54
8300,3.52,3.52
8301,3.51,3.52
8303,3.51,3.54
8304,3.53,3.57
8305,3.56,3.60
8306,3.59,3.62
8307,3.61,3.62
8308,3.61,3.62
8309,3.60,3.61
8310,3.60,3.60
8312,3.59,3.58
8313,3.57,3.57
8314,3.56,3.55
8315,3.54,3.54
8316,3.53,3.52
8317,3.51,3.51
8318,3.51,3.52
8321,3.52,3.55
8322,3.54,3.58
8323,3.58,3.61
8324,3.60,3.62
8325,3.61,3.62
8326,3.61,3.61
8327,3.60,3.60
8328,3.59,3.59
8330,3.58,3.57
8331,3.56,3.56
8332,3.55,3.55
8333,3.53,3.53
8334,3.52,3.51
8335,3.51,3.51
8336,3.51,3.54
8337,3.53,3.57
8339,3.56,3.60
8340,3.59,3.62
8341,3.60,3.62
8342,3.61,3.61
8343,3.60,3.60
8344,3.59,3.59
8345,3.58,3.58
8346,3.57,3.56
8348,3.56,3.55
8349,3.54,3.53
8350,3.53,3.52
8351,3.51,3.51
8352,3.51,3.52
8353,3.52,3.55
8354,3.55,3.58
8355,3.58,3.61
8357,3.60,3.62
8358,3.61,3.61
8359,3.61,3.60
8360,3.60,3.59
8361,3.59,3.58
8363,3.58,3.57
8364,3.56,3.55
8365,3.55,3.54
8367,3.53,3.53
8368,3.52,3.51
8369,3.50,3.51
8370,3.51,3.54
8371,3.53,3.57
8372,3.57,3.60
8373,3.59,3.61
8374,3.61,3.61
8376,3.61,3.61
8377,3.60,3.60
8378,3.59,3.59
8379,3.58,3.57
8380,3.57,3.56
8381,3.55,3.55
8382,3.54,3.53
8383,3.52,3.52
8385,3.51,3.51
8386,3.51,3.52
8387,3.52,3.55
8388,3.55,3.59
8389,3.58,3.61
8390,3.60,3.61
8391,3.61,3.61
8392,3.60,3.60
8394,3.60,3.59
8395,3.58,3.58
8396,3.57,3.56
8397,3.56,3.55
8398,3.54,3.54
8399,3.53,3.52
8400,3.51,3.51
8401,3.50,3.52
8403,3.51,3.54
8404,3.54,3.57
8406,3.57,3.60
8407,3.59,3.61
8408,3.60,3.61
8409,3.60,3.60
8410,3.60,3.59
8411,3.59,3.58
8413,3.58,3.57
8414,3.57,3.56
8415,3.55,3.54
8416,3.54,3.53
8417,3.52,3.51
8418,3.51,3.51
8419,3.51,3.52
8420,3.52,3.55
8422,3.55,3.58
8423,3.59,3.61
8424,3.60,3.61
8425,3.61,3.61
8426,3.60,3.60
8427,3.60,3.59
8428,3.59,3.58
8429,3.57,3.56
8431,3.56,3.55
8432,3.54,3.53
8433,3.53,3.52
8434,3.51,3.51
8435,3.50,3.51
8436,3.51,3.54
8437,3.54,3.57
8438,3.57,3.60
8440,3.60,3.61
8441,3.61,3.61
8442,3.60,3.60
8443,3.60,3.59
8444,3.59,3.58
8445,3.58,3.57
8446,3.57,3.55
8448,3.55,3.54
8450,3.54,3.53
8451,3.52,3.51
8452,3.51,3.51
8453,3.51,3.53
8454,3.53,3.56
8455,3.56,3.59
8456,3.59,3.61
8457,3.61,3.62
8459,3.61,3.61
8460,3.61,3.60
8461,3.60,3.59
8462,3.59,3.58
8463,3.58,3.57
8464,3.56,3.55
8465,3.55,3.54
8467,3.53,3.53
8468,3.52,3.51
8469,3.51,3.52
8470,3.52,3.55
8471,3.55,3.59
8472,3.59,3.62
8473,3.62,3.63
8474,3.63,3.63
8476,3.63,3.63
8477,3.62,3.62
8478,3.61,3.61
8479,3.60,3.60
8480,3.59,3.59
8481,3.57,3.57
8482,3.56,3.56
8483,3.54,3.54
8485,3.53,3.54
8486,3.54,3.57
8487,3.56,3.60
8488,3.60,3.64
8489,3.63,3.66
8491,3.65,3.67
8492,3.65,3.66
8493,3.65,3.65
8495,3.64,3.64
8496,3.63,3.62
8497,3.62,3.61
8498,3.60,3.59
8499,3.58,3.58
8500,3.57,3.56
8501,3.55,3.55
8503,3.55,3.56
8504,3.56,3.59
8505,3.59,3.62
8506,3.62,3.65
8507,3.65,3.66
8508,3.66,3.66
8509,3.65,3.65
8510,3.65,3.64
8512,3.64,3.63
8513,3.62,3.61
8514,3.61,3.60
8515,3.59,3.58
8516,3.57,3.57
8517,3.56,3.55
8518,3.54,3.55
8519,3.54,3.57
8521,3.56,3.59
8522,3.59,3.63
8523,3.62,3.64
8524,3.63,3.65
8525,3.63,3.64
8526,3.63,3.63
8527,3.62,3.62
8528,3.61,3.60
8530,3.59,3.59
8531,3.58,3.57
8532,3.56,3.56
8534,3.54,3.54
8535,3.52,3.53
8536,3.51,3.53
8537,3.52,3.55
8538,3.55,3.59
8540,3.58,3.61
8541,3.59,3.61
8542,3.60,3.61
8543,3.59,3.60
8544,3.59,3.59
8545,3.58,3.58
8546,3.56,3.56
8547,3.55,3.55
8549,3.53,3.53
8550,3.52,3.52
8551,3.50,3.50
8552,3.49,3.50
8553,3.48,3.51
8554,3.50,3.54
8555,3.52,3.57
8556,3.55,3.58
8558,3.56,3.57
8559,3.56,3.57
8560,3.55,3.56
8561,3.54,3.55
8562,3.53,3.54
8563,3.52,3.52
8564,3.50,3.51
8565,3.49,3.50
8567,3.48,3.48
8568,3.47,3.47
8569,3.45,3.48
8570,3.46,3.49
8571,3.47,3.52
8572,3.49,3.54
8573,3.51,3.54
8576,3.51,3.54
8577,3.51,3.53
8578,3.51,3.52
8579,3.50,3.51
8580,3.49,3.50
8581,3.48,3.48
8582,3.47,3.48
8583,3.45,3.46
8585,3.44,3.45
8586,3.42,3.44
8587,3.42,3.46
8588,3.44,3.48
8589,3.46,3.51
8590,3.48,3.52
8591,3.49,3.52
8592,3.49,3.51
8594,3.49,3.50
8595,3.48,3.49
8596,3.48,3.48
8597,3.47,3.47
8598,3.45,3.45
8599,3.44,3.44
8600,3.43,3.42
8601,3.41,3.41
8603,3.40,3.42
8604,3.41,3.44
8605,3.43,3.48
8606,3.46,3.49
8607,3.48,3.49
8608,3.48,3.49
8609,3.48,3.48
8611,3.48,3.48
8612,3.47,3.46
8613,3.46,3.45
8614,3.45,3.44
8615,3.44,3.43
8616,3.42,3.42
8617,3.41,3.40
8619,3.39,3.40
8621,3.40,3.42
8622,3.42,3.46
8623,3.45,3.48
8624,3.47,3.49
8625,3.48,3.49
8626,3.48,3.48
8627,3.48,3.48
8628,3.47,3.47
8630,3.47,3.46
8631,3.45,3.44
8632,3.44,3.43
8633,3.43,3.42
8634,3.42,3.41
8635,3.40,3.40
8636,3.40,3.42
8638,3.42,3.45
8639,3.45,3.48
8640,3.47,3.49
8641,3.48,3.50
8642,3.49,3.49
8643,3.49,3.49
8644,3.48,3.48
8645,3.48,3.47
8647,3.47,3.46
8648,3.45,3.44
8649,3.44,3.43
8650,3.43,3.42
8651,3.41,3.41
8652,3.41,3.42
8653,3.42,3.45
8655,3.45,3.49
8656,3.48,3.51
8657,3.50,3.52
8658,3.51,3.51
8659,3.51,3.51
8660,3.51,3.50
8662,3.50,3.49
8663,3.49,3.48
8665,3.48,3.47
8666,3.47,3.46
8667,3.46,3.44
8668,3.44,3.43
8669,3.43,3.43
8670,3.44,3.46
8671,3.46,3.49
8672,3.49,3.52
8674,3.51,3.53
8675,3.52,3.53
8676,3.52,3.53
8677,3.52,3.52
8678,3.52,3.51
8679,3.51,3.50
8680,3.50,3.48
8681,3.49,3.48
8683,3.48,3.46
8684,3.46,3.45
8685,3.45,3.44
8686,3.44,3.46
8687,3.46,3.49
8688,3.49,3.52
8689,3.51,3.53
8691,3.52,3.54
8692,3.53,3.53
8693,3.53,3.52
8694,3.52,3.51
8695,3.51,3.50
8696,3.51,3.49
8697,3.49,3.48
8698,3.48,3.47
8700,3.47,3.46
8701,3.45,3.45
8702,3.44,3.45
8704,3.45,3.48
8705,3.48,3.51
8706,3.51,3.54
8707,3.52,3.54
8708,3.53,3.54
8710,3.54,3.53
8711,3.53,3.53
8712,3.52,3.52
8713,3.51,3.51
8714,3.50,3.49
8715,3.49,3.48
8716,3.48,3.47
8717,3.47,3.46
8719,3.46,3.46
8720,3.47,3.49
8721,3.49,3.52
8722,3.52,3.55
8723,3.55,3.57
8724,3.56,3.57
8725,3.57,3.56
8726,3.56,3.55
8728,3.56,3.54
8729,3.55,3.53
8730,3.54,3.52
8731,3.52,3.51
8732,3.51,3.50
8733,3.50,3.48
8734,3.48,3.48
8735,3.49,3.50
8737,3.51,3.53
8738,3.54,3.57
8739,3.57,3.58
8740,3.59,3.59
8741,3.59,3.58
8742,3.59,3.58
8743,3.58,3.57
