time_ms,ch1_v,ch2_v
61,4.39,4.32
62,4.39,4.32
63,4.39,4.33
64,4.39,4.34
65,4.39,4.34
66,4.39,4.35
67,4.39,4.35
68,4.39,4.35
69,4.39,4.36
70,4.39,4.36
71,4.39,4.37
72,4.39,4.37
73,4.39,4.38
74,4.39,4.38
75,4.39,4.39
76,4.39,4.39
77,4.39,4.40
78,4.39,4.40
79,4.39,4.41
80,4.39,4.41
81,4.39,4.41
82,4.39,4.42
83,4.39,4.42
84,4.39,4.43
86,4.39,4.43
87,4.39,4.44
88,4.39,4.44
89,4.39,4.45
90,4.39,4.45
91,4.39,4.46
92,4.39,4.46
93,4.39,4.47
94,4.39,4.48
96,4.39,4.48
97,4.39,4.49
98,4.39,4.49
99,4.40,4.50
100,4.39,4.50
101,4.39,4.51
102,4.40,4.52
103,4.39,4.52
104,4.39,4.53
105,4.40,4.54
106,4.39,4.55
107,4.40,4.55
108,4.40,4.56
109,4.40,4.57
110,4.40,4.57
111,4.40,4.58
113,4.40,4.59
114,4.40,4.60
115,4.40,4.61
116,4.40,4.63
117,4.40,4.64
118,4.40,4.65
119,4.40,4.66
120,4.41,4.68
121,4.40,4.69
122,4.40,4.70
123,4.41,4.71
124,4.41,4.72
125,4.41,4.73
126,4.41,4.74
129,4.41,4.75
130,4.41,4.76
131,4.41,4.77
132,4.41,4.78
133,4.41,4.78
134,4.41,4.79
135,4.41,4.79
136,4.41,4.80
137,4.41,4.80
138,4.41,4.81
139,4.41,4.82
140,4.41,4.82
141,4.41,4.83
143,4.41,4.83
144,4.41,4.84
145,4.41,4.84
146,4.41,4.84
147,4.40,4.85
148,4.40,4.85
149,4.40,4.86
150,4.40,4.86
151,4.40,4.86
152,4.40,4.87
153,4.40,4.87
154,4.40,4.87
155,4.40,4.88
156,4.40,4.88
158,4.40,4.88
159,4.40,4.89
160,4.40,4.89
161,4.40,4.89
162,4.40,4.89
163,4.40,4.90
164,4.40,4.90
165,4.40,4.90
166,4.40,4.90
167,4.40,4.90
168,4.40,4.91
169,4.40,4.91
171,4.40,4.91
172,4.40,4.91
173,4.40,4.91
175,4.40,4.92
176,4.40,4.92
177,4.40,4.92
178,4.40,4.92
179,4.40,4.92
180,4.40,4.92
181,4.40,4.93
182,4.40,4.93
183,4.40,4.93
184,4.40,4.93
185,4.40,4.93
186,4.40,4.93
187,4.40,4.93
188,4.40,4.93
190,4.40,4.93
191,4.40,4.92
192,4.40,4.92
193,4.40,4.91
194,4.39,4.91
195,4.39,4.90
196,4.40,4.90
197,4.40,4.89
198,4.40,4.89
199,4.40,4.88
200,4.40,4.87
201,4.40,4.87
202,4.41,4.86
203,4.40,4.85
205,4.41,4.84
206,4.41,4.83
207,4.41,4.82
208,4.41,4.81
209,4.41,4.80
210,4.41,4.79
211,4.41,4.78
212,4.41,4.78
214,4.41,4.76
215,4.41,4.76
216,4.41,4.75
217,4.40,4.74
218,4.40,4.73
220,4.40,4.72
221,4.40,4.71
222,4.40,4.70
223,4.40,4.69
224,4.40,4.68
225,4.40,4.67
226,4.40,4.66
227,4.40,4.66
228,4.40,4.65
229,4.40,4.64
230,4.40,4.63
231,4.39,4.62
232,4.39,4.62
233,4.39,4.61
235,4.39,4.60
236,4.39,4.60
237,4.39,4.59
238,4.39,4.58
239,4.39,4.58
240,4.39,4.57
241,4.39,4.57
242,4.39,4.57
243,4.39,4.56
244,4.39,4.56
245,4.38,4.55
246,4.38,4.55
247,4.39,4.55
249,4.38,4.54
250,4.38,4.54
251,4.39,4.54
252,4.39,4.53
253,4.38,4.53
254,4.38,4.53
256,4.38,4.52
257,4.38,4.52
258,4.38,4.52
259,4.38,4.52
260,4.39,4.51
261,4.39,4.51
263,4.39,4.51
264,4.39,4.51
265,4.39,4.51
266,4.39,4.51
267,4.39,4.51
268,4.39,4.51
269,4.39,4.51
270,4.39,4.50
271,4.39,4.51
272,4.39,4.50
273,4.39,4.50
274,4.39,4.51
275,4.39,4.50
277,4.39,4.50
278,4.39,4.50
279,4.39,4.51
280,4.39,4.50
281,4.39,4.51
282,4.39,4.51
283,4.40,4.51
284,4.40,4.51
285,4.40,4.51
286,4.40,4.51
287,4.40,4.51
288,4.40,4.51
289,4.40,4.51
290,4.40,4.51
292,4.40,4.51
293,4.40,4.51
294,4.40,4.52
295,4.40,4.52
296,4.40,4.52
297,4.40,4.52
299,4.41,4.52
300,4.41,4.52
301,4.41,4.52
302,4.41,4.52
303,4.41,4.52
304,4.41,4.53
305,4.41,4.53
307,4.41,4.53
308,4.41,4.53
309,4.41,4.53
310,4.41,4.53
311,4.41,4.53
312,4.41,4.53
313,4.42,4.53
314,4.42,4.54
315,4.42,4.54
316,4.42,4.54
317,4.42,4.54
318,4.42,4.54
320,4.42,4.54
321,4.42,4.54
322,4.42,4.54
323,4.42,4.54
324,4.42,4.54
325,4.42,4.54
326,4.42,4.55
327,4.42,4.55
328,4.42,4.55
329,4.42,4.55
330,4.41,4.55
331,4.42,4.55
333,4.41,4.55
334,4.42,4.56
335,4.41,4.56
336,4.41,4.56
337,4.41,4.56
338,4.41,4.56
339,4.42,4.56
340,4.41,4.56
342,4.41,4.56
343,4.41,4.57
344,4.41,4.57
345,4.42,4.57
347,4.41,4.57
348,4.42,4.57
349,4.41,4.57
350,4.41,4.57
351,4.41,4.57
352,4.41,4.57
353,4.41,4.57
354,4.41,4.57
355,4.41,4.57
356,4.41,4.58
357,4.42,4.58
358,4.42,4.58
359,4.42,4.58
361,4.41,4.58
362,4.41,4.58
363,4.41,4.58
364,4.42,4.58
365,4.42,4.58
366,4.40,4.56
367,4.39,4.54
368,4.38,4.54
369,4.37,4.54
370,4.37,4.52
371,4.35,4.49
372,4.32,4.45
373,4.28,4.41
375,4.24,4.38
376,4.21,4.36
377,4.19,4.35
378,4.18,4.35
379,4.18,4.35
380,4.18,4.36
381,4.18,4.35
382,4.16,4.33
384,4.15,4.32
385,4.14,4.32
386,4.14,4.32
387,4.14,4.30
389,4.12,4.28
390,4.10,4.24
391,4.07,4.21
392,4.03,4.18
393,4.01,4.16
394,4.00,4.16
395,3.99,4.17
396,4.00,4.17
397,4.01,4.18
398,4.02,4.18
399,4.01,4.16
400,3.99,4.14
401,3.99,4.14
402,3.99,4.14
404,3.99,4.13
405,3.98,4.11
406,3.95,4.08
407,3.93,4.05
408,3.90,4.02
409,3.88,4.01
410,3.87,4.01
411,3.88,4.02
412,3.89,4.03
413,3.91,4.05
414,3.91,4.04
415,3.91,4.03
416,3.90,4.01
417,3.90,4.01
419,3.90,4.01
420,3.90,4.00
421,3.89,3.98
422,3.87,3.95
423,3.85,3.93
424,3.82,3.90
425,3.80,3.89
427,3.79,3.89
428,3.80,3.91
429,3.81,3.92
430,3.83,3.94
431,3.85,3.95
432,3.86,3.94
434,3.85,3.92
435,3.84,3.92
436,3.85,3.93
437,3.85,3.92
438,3.85,3.91
439,3.83,3.89
440,3.82,3.87
441,3.79,3.84
442,3.77,3.83
443,3.77,3.84
444,3.77,3.85
445,3.79,3.87
446,3.81,3.89
448,3.84,3.90
449,3.84,3.90
450,3.84,3.88
451,3.83,3.89
452,3.84,3.89
453,3.85,3.89
454,3.84,3.88
455,3.83,3.86
456,3.81,3.84
457,3.79,3.81
458,3.77,3.80
459,3.77,3.81
460,3.78,3.82
462,3.79,3.85
463,3.82,3.87
464,3.84,3.89
465,3.85,3.88
466,3.85,3.87
467,3.84,3.87
468,3.85,3.88
470,3.86,3.88
471,3.85,3.87
472,3.84,3.85
473,3.82,3.83
474,3.80,3.81
475,3.78,3.79
477,3.77,3.80
478,3.78,3.82
479,3.79,3.84
480,3.82,3.86
481,3.84,3.88
482,3.86,3.88
483,3.85,3.87
484,3.85,3.86
485,3.85,3.87
486,3.86,3.87
487,3.85,3.86
488,3.84,3.84
489,3.82,3.82
491,3.80,3.80
492,3.78,3.79
493,3.77,3.79
494,3.78,3.81
495,3.79,3.83
496,3.82,3.86
497,3.84,3.87
498,3.85,3.87
499,3.85,3.86
500,3.85,3.86
501,3.85,3.87
502,3.86,3.87
503,3.86,3.86
505,3.84,3.84
506,3.83,3.82
507,3.81,3.80
508,3.78,3.79
509,3.77,3.79
510,3.77,3.80
512,3.79,3.82
513,3.81,3.85
514,3.84,3.87
515,3.85,3.87
516,3.85,3.86
517,3.85,3.86
518,3.85,3.87
520,3.86,3.87
521,3.85,3.86
522,3.84,3.84
523,3.82,3.82
524,3.81,3.80
525,3.78,3.78
526,3.77,3.78
527,3.77,3.80
528,3.78,3.82
529,3.81,3.84
530,3.83,3.87
531,3.85,3.87
532,3.85,3.86
534,3.84,3.85
535,3.84,3.86
536,3.85,3.87
537,3.85,3.86
538,3.84,3.84
539,3.82,3.82
540,3.81,3.80
541,3.79,3.79
542,3.77,3.78
543,3.77,3.80
544,3.79,3.82
545,3.81,3.85
546,3.83,3.87
548,3.87,3.89
549,3.86,3.87
550,3.84,3.86
551,3.84,3.86
552,3.85,3.86
553,3.85,3.86
555,3.84,3.84
556,3.82,3.82
557,3.80,3.80
558,3.78,3.78
559,3.76,3.78
560,3.76,3.79
561,3.77,3.81
563,3.79,3.83
564,3.82,3.86
565,3.84,3.87
566,3.84,3.86
567,3.84,3.85
568,3.83,3.86
569,3.84,3.86
570,3.84,3.86
571,3.83,3.84
572,3.82,3.82
573,3.80,3.80
574,3.78,3.78
575,3.76,3.77
577,3.76,3.79
578,3.77,3.80
579,3.79,3.83
580,3.82,3.86
581,3.84,3.87
582,3.84,3.86
583,3.83,3.85
584,3.83,3.85
585,3.83,3.86
586,3.84,3.85
587,3.83,3.83
588,3.81,3.81
590,3.79,3.79
591,3.77,3.77
592,3.75,3.77
593,3.75,3.78
594,3.76,3.80
595,3.78,3.82
596,3.81,3.85
598,3.83,3.86
599,3.84,3.86
600,3.83,3.85
601,3.82,3.85
602,3.83,3.86
603,3.83,3.85
605,3.82,3.83
606,3.81,3.81
607,3.79,3.79
608,3.77,3.77
609,3.75,3.77
610,3.75,3.78
611,3.76,3.80
612,3.77,3.82
613,3.80,3.85
614,3.83,3.87
615,3.83,3.86
616,3.83,3.85
617,3.82,3.85
619,3.83,3.86
620,3.84,3.86
621,3.83,3.85
622,3.82,3.83
623,3.80,3.81
624,3.78,3.79
625,3.76,3.78
626,3.76,3.79
627,3.77,3.80
628,3.78,3.83
629,3.81,3.87
630,3.84,3.88
631,3.85,3.87
633,3.84,3.86
634,3.84,3.86
635,3.84,3.87
636,3.85,3.87
637,3.84,3.85
638,3.83,3.84
640,3.81,3.81
641,3.79,3.79
642,3.77,3.78
643,3.76,3.79
644,3.77,3.81
645,3.79,3.84
646,3.82,3.87
648,3.84,3.88
649,3.85,3.88
650,3.85,3.87
651,3.84,3.87
652,3.85,3.88
653,3.85,3.87
654,3.85,3.86
655,3.84,3.84
656,3.82,3.82
657,3.80,3.80
658,3.78,3.79
659,3.77,3.79
661,3.77,3.81
662,3.79,3.84
663,3.82,3.87
664,3.84,3.89
665,3.86,3.88
666,3.85,3.87
667,3.84,3.87
668,3.85,3.88
669,3.85,3.88
670,3.85,3.86
671,3.84,3.84
672,3.82,3.82
673,3.80,3.80
675,3.78,3.79
676,3.77,3.80
677,3.77,3.81
678,3.79,3.84
679,3.81,3.87
680,3.84,3.89
681,3.85,3.88
683,3.85,3.87
684,3.84,3.87
685,3.84,3.88
686,3.85,3.88
687,3.85,3.86
688,3.84,3.85
690,3.82,3.83
691,3.80,3.81
692,3.78,3.79
693,3.77,3.80
694,3.77,3.81
695,3.79,3.84
696,3.81,3.86
697,3.84,3.89
698,3.85,3.89
699,3.85,3.88
700,3.84,3.87
701,3.84,3.88
703,3.85,3.88
704,3.85,3.86
705,3.84,3.85
706,3.82,3.83
707,3.80,3.80
708,3.78,3.79
709,3.77,3.79
710,3.77,3.81
711,3.78,3.83
712,3.81,3.86
713,3.84,3.88
714,3.85,3.88
715,3.85,3.87
717,3.84,3.87
718,3.84,3.87
719,3.85,3.88
720,3.85,3.86
721,3.84,3.84
722,3.82,3.82
723,3.80,3.80
724,3.77,3.79
726,3.76,3.79
727,3.76,3.80
728,3.78,3.83
729,3.80,3.85
730,3.83,3.88
732,3.85,3.88
733,3.85,3.87
734,3.84,3.86
735,3.84,3.87
736,3.85,3.87
737,3.85,3.86
738,3.84,3.85
739,3.82,3.83
740,3.80,3.81
741,3.78,3.79
742,3.76,3.79
743,3.76,3.80
744,3.78,3.82
746,3.80,3.85
747,3.83,3.88
748,3.85,3.88
749,3.85,3.87
750,3.84,3.86
751,3.84,3.87
752,3.84,3.87
753,3.84,3.86
754,3.83,3.84
755,3.82,3.83
756,3.80,3.81
757,3.78,3.78
759,3.76,3.78
760,3.76,3.80
761,3.77,3.82
762,3.80,3.85
763,3.82,3.87
764,3.84,3.88
765,3.85,3.87
766,3.84,3.86
768,3.83,3.86
769,3.84,3.86
770,3.84,3.85
771,3.83,3.83
772,3.81,3.81
774,3.79,3.79
775,3.77,3.78
776,3.75,3.77
777,3.75,3.78
778,3.76,3.81
779,3.78,3.83
780,3.81,3.86
781,3.83,3.86
782,3.83,3.86
783,3.83,3.85
784,3.82,3.85
785,3.83,3.85
787,3.83,3.85
788,3.82,3.83
789,3.81,3.81
790,3.79,3.79
791,3.77,3.77
792,3.75,3.77
793,3.75,3.78
794,3.76,3.80
795,3.78,3.83
796,3.81,3.86
797,3.83,3.87
798,3.84,3.86
799,3.83,3.85
801,3.83,3.85
802,3.84,3.86
803,3.84,3.85
804,3.83,3.84
805,3.81,3.82
806,3.79,3.80
807,3.77,3.78
808,3.75,3.77
809,3.75,3.78
811,3.76,3.81
812,3.79,3.83
813,3.82,3.86
814,3.84,3.87
816,3.85,3.87
817,3.84,3.86
818,3.83,3.86
819,3.84,3.86
820,3.84,3.86
821,3.84,3.84
822,3.82,3.82
823,3.80,3.80
824,3.78,3.78
825,3.76,3.78
826,3.76,3.79
827,3.77,3.81
828,3.79,3.83
830,3.81,3.86
831,3.84,3.87
832,3.85,3.87
833,3.84,3.86
834,3.84,3.86
835,3.84,3.87
836,3.85,3.86
837,3.84,3.85
838,3.83,3.83
839,3.81,3.81
840,3.79,3.79
841,3.77,3.79
843,3.77,3.80
844,3.78,3.82
845,3.80,3.85
846,3.83,3.88
847,3.86,3.89
848,3.87,3.89
849,3.86,3.88
850,3.86,3.88
851,3.87,3.89
852,3.88,3.89
854,3.87,3.88
855,3.86,3.86
856,3.84,3.84
858,3.82,3.81
859,3.80,3.81
860,3.80,3.82
861,3.81,3.84
862,3.83,3.87
863,3.86,3.90
864,3.88,3.91
865,3.89,3.91
866,3.89,3.90
867,3.88,3.90
868,3.89,3.91
869,3.90,3.91
870,3.89,3.90
872,3.88,3.88
873,3.86,3.86
874,3.84,3.84
875,3.82,3.83
876,3.82,3.85
877,3.83,3.87
878,3.85,3.89
879,3.88,3.92
880,3.90,3.94
881,3.91,3.94
882,3.91,3.93
883,3.91,3.94
884,3.92,3.96
886,3.94,3.97
887,3.95,3.97
888,3.95,3.96
889,3.93,3.94
890,3.91,3.91
891,3.90,3.91
892,3.90,3.92
893,3.91,3.94
894,3.92,3.97
896,3.95,4.00
897,3.97,4.02
898,3.99,4.02
899,3.99,4.01
900,3.98,4.02
902,3.99,4.04
903,4.01,4.06
904,4.04,4.08
905,4.06,4.10
906,4.07,4.09
907,4.07,4.08
908,4.06,4.08
909,4.06,4.09
910,4.08,4.11
911,4.09,4.13
912,4.12,4.15
913,4.13,4.18
914,4.15,4.20
915,4.17,4.23
917,4.20,4.26
918,4.22,4.28
919,4.24,4.31
920,4.27,4.33
921,4.29,4.35
922,4.31,4.38
923,4.33,4.40
924,4.35,4.42
925,4.36,4.44
926,4.38,4.46
927,4.40,4.48
928,4.41,4.50
929,4.43,4.51
931,4.44,4.53
932,4.45,4.55
933,4.46,4.56
934,4.47,4.57
935,4.48,4.58
936,4.49,4.60
937,4.50,4.61
939,4.51,4.62
940,4.51,4.63
941,4.52,4.64
942,4.52,4.65
943,4.53,4.65
944,4.53,4.66
946,4.53,4.67
947,4.53,4.68
948,4.53,4.68
949,4.54,4.69
950,4.53,4.70
951,4.53,4.70
952,4.53,4.71
953,4.53,4.71
954,4.53,4.72
955,4.53,4.72
956,4.53,4.72
957,4.52,4.73
959,4.52,4.73
960,4.52,4.73
961,4.52,4.74
962,4.51,4.74
963,4.51,4.74
964,4.51,4.74
965,4.50,4.74
966,4.50,4.74
967,4.50,4.75
968,4.50,4.75
969,4.49,4.75
970,4.49,4.75
971,4.49,4.75
973,4.48,4.75
974,4.48,4.75
975,4.48,4.76
976,4.47,4.76
977,4.47,4.76
978,4.47,4.76
979,4.47,4.76
980,4.46,4.76
982,4.46,4.76
983,4.46,4.77
984,4.46,4.77
985,4.46,4.77
986,4.46,4.77
988,4.45,4.77
989,4.45,4.77
990,4.45,4.77
991,4.45,4.77
992,4.45,4.78
993,4.44,4.77
994,4.44,4.77
995,4.44,4.77
996,4.44,4.78
997,4.44,4.77
998,4.44,4.78
999,4.44,4.78
1001,4.44,4.78
1002,4.44,4.78
1003,4.44,4.78
1004,4.44,4.78
1005,4.44,4.78
1006,4.43,4.78
1007,4.44,4.79
1008,4.43,4.79
1010,4.44,4.79
1011,4.43,4.79
1012,4.43,4.79
1013,4.43,4.79
1014,4.43,4.79
1015,4.43,4.79
1016,4.43,4.79
1017,4.43,4.79
1019,4.43,4.79
1020,4.43,4.79
1021,4.43,4.79
1022,4.43,4.79
1024,4.43,4.80
1025,4.43,4.80
1026,4.43,4.80
1027,4.43,4.80
1029,4.43,4.80
1030,4.43,4.80
1031,4.43,4.80
1032,4.43,4.80
1033,4.43,4.80
1034,4.43,4.80
1035,4.43,4.81
1036,4.43,4.81
1037,4.43,4.81
1039,4.43,4.81
1040,4.43,4.81
1041,4.43,4.81
1042,4.43,4.81
1043,4.43,4.81
1044,4.43,4.81
1045,4.43,4.81
1046,4.43,4.81
1048,4.43,4.81
1049,4.43,4.81
1050,4.43,4.81
1051,4.43,4.81
1052,4.43,4.81
1053,4.43,4.81
1054,4.43,4.82
1055,4.43,4.82
1057,4.43,4.82
1058,4.43,4.82
1059,4.43,4.82
1060,4.43,4.82
1061,4.43,4.82
1062,4.43,4.82
1063,4.43,4.82
1064,4.43,4.82
1067,4.43,4.82
1068,4.43,4.82
1069,4.43,4.82
1070,4.43,4.82
1071,4.43,4.83
1072,4.43,4.83
1073,4.43,4.83
1074,4.43,4.83
1076,4.43,4.83
1077,4.43,4.83
1078,4.43,4.83
1079,4.43,4.83
1080,4.43,4.83
1081,4.43,4.83
1082,4.42,4.83
1083,4.42,4.83
1085,4.43,4.83
1086,4.43,4.83
1087,4.42,4.83
1088,4.42,4.83
1089,4.42,4.83
1090,4.43,4.83
1091,4.42,4.83
1092,4.42,4.84
1094,4.43,4.84
1095,4.42,4.84
1096,4.43,4.84
1097,4.42,4.84
1098,4.43,4.84
1099,4.42,4.84
1100,4.42,4.84
1101,4.42,4.84
1103,4.42,4.84
1104,4.42,4.84
1105,4.42,4.84
1106,4.42,4.84
1107,4.42,4.84
1108,4.42,4.84
1110,4.42,4.84
1111,4.42,4.84
1113,4.42,4.84
1114,4.42,4.84
1115,4.42,4.84
1116,4.42,4.85
1117,4.42,4.85
1118,4.42,4.85
1119,4.42,4.85
1120,4.42,4.85
1122,4.42,4.85
1123,4.42,4.85
1124,4.42,4.85
1125,4.42,4.85
1126,4.42,4.85
1127,4.42,4.86
1128,4.42,4.86
1129,4.42,4.86
1131,4.42,4.86
1132,4.42,4.86
1133,4.42,4.86
1134,4.42,4.86
1135,4.42,4.86
1136,4.42,4.87
1137,4.42,4.87
1138,4.42,4.87
1140,4.42,4.87
1141,4.42,4.87
1142,4.42,4.87
1143,4.42,4.87
1144,4.42,4.87
1145,4.42,4.87
1146,4.42,4.87
1147,4.42,4.87
1149,4.42,4.87
1150,4.42,4.87
1152,4.42,4.87
1153,4.42,4.87
1154,4.42,4.87
1155,4.42,4.87
1156,4.42,4.88
1157,4.42,4.88
1159,4.42,4.88
1160,4.42,4.88
1161,4.42,4.88
1162,4.42,4.88
1163,4.42,4.89
1164,4.42,4.89
1165,4.42,4.89
1166,4.42,4.89
1168,4.42,4.89
1169,4.42,4.89
1170,4.42,4.89
1171,4.42,4.89
1172,4.42,4.89
1173,4.42,4.89
1174,4.42,4.90
1175,4.42,4.90
1177,4.42,4.90
1178,4.42,4.90
1179,4.42,4.90
1180,4.42,4.90
1181,4.42,4.90
1182,4.42,4.90
1183,4.42,4.90
1184,4.41,4.89
1186,4.41,4.89
1187,4.42,4.89
1188,4.41,4.89
1189,4.41,4.89
1190,4.42,4.89
1191,4.41,4.89
1192,4.41,4.89
1193,4.41,4.89
1196,4.41,4.89
1197,4.41,4.89
1198,4.41,4.89
1199,4.41,4.89
1200,4.41,4.89
1201,4.41,4.89
1202,4.41,4.89
1203,4.41,4.89
1205,4.41,4.89
1206,4.41,4.89
1207,4.41,4.89
1208,4.41,4.89
1209,4.41,4.89
1210,4.41,4.89
1211,4.41,4.89
1212,4.41,4.89
1214,4.41,4.89
1215,4.41,4.89
1216,4.41,4.88
1217,4.41,4.89
1218,4.41,4.88
1219,4.41,4.88
1220,4.41,4.88
1221,4.41,4.88
1223,4.41,4.88
1224,4.41,4.88
1225,4.41,4.87
1226,4.41,4.87
1227,4.41,4.87
1228,4.41,4.87
1229,4.41,4.87
1230,4.41,4.87
1232,4.41,4.86
1233,4.41,4.86
1234,4.41,4.86
1235,4.41,4.86
1236,4.41,4.86
1238,4.41,4.85
1239,4.41,4.85
1240,4.41,4.85
1242,4.41,4.85
1243,4.41,4.85
1244,4.41,4.84
1245,4.41,4.84
1246,4.41,4.84
1247,4.41,4.84
1248,4.40,4.83
1249,4.40,4.83
1251,4.40,4.83
1252,4.40,4.83
1253,4.40,4.83
1254,4.40,4.83
1255,4.40,4.82
1256,4.40,4.82
1257,4.40,4.82
1258,4.40,4.82
1259,4.40,4.82
1261,4.40,4.82
1262,4.40,4.82
1263,4.40,4.81
1264,4.40,4.81
1265,4.40,4.81
1266,4.40,4.81
1267,4.40,4.80
1268,4.40,4.80
1270,4.40,4.80
1271,4.40,4.79
1272,4.40,4.79
1273,4.40,4.79
1274,4.40,4.78
1275,4.40,4.78
1276,4.40,4.78
1277,4.40,4.78
1280,4.40,4.77
1281,4.40,4.77
1282,4.40,4.76
1283,4.40,4.76
1284,4.40,4.76
1285,4.40,4.75
1286,4.40,4.75
1287,4.40,4.74
1289,4.40,4.74
1290,4.40,4.73
1291,4.40,4.73
1292,4.40,4.72
1293,4.40,4.72
1294,4.40,4.71
1295,4.40,4.71
1296,4.40,4.70
1298,4.40,4.70
1299,4.40,4.69
1300,4.40,4.69
1301,4.40,4.68
1302,4.39,4.68
1303,4.39,4.67
1304,4.40,4.67
1305,4.39,4.66
1307,4.39,4.66
1308,4.40,4.65
1309,4.39,4.64
1310,4.39,4.64
1311,4.39,4.63
1312,4.39,4.63
1313,4.39,4.62
1314,4.39,4.62
1316,4.39,4.61
1317,4.39,4.61
1318,4.39,4.60
1319,4.39,4.59
1320,4.39,4.59
1321,4.39,4.58
1323,4.39,4.58
1324,4.39,4.57
1326,4.39,4.57
1327,4.39,4.57
1328,4.39,4.56
1329,4.39,4.56
1330,4.39,4.55
1331,4.39,4.55
1332,4.39,4.54
1333,4.39,4.54
1335,4.39,4.53
1336,4.39,4.53
1337,4.38,4.52
1338,4.38,4.52
1339,4.38,4.51
1340,4.38,4.51
1341,4.38,4.50
1342,4.39,4.50
1344,4.38,4.49
1345,4.38,4.49
1346,4.38,4.48
1347,4.38,4.48
1348,4.38,4.48
1349,4.38,4.47
1350,4.38,4.47
1351,4.38,4.46
1353,4.38,4.46
1354,4.38,4.46
1355,4.38,4.45
1356,4.38,4.45
1357,4.38,4.45
1358,4.38,4.44
1359,4.38,4.44
1360,4.38,4.44
1362,4.38,4.43
1363,4.38,4.43
1364,4.38,4.43
1366,4.38,4.42
1367,4.38,4.42
1368,4.38,4.42
1369,4.38,4.42
1370,4.38,4.42
1372,4.38,4.41
1373,4.38,4.41
1374,4.38,4.41
1375,4.38,4.41
1376,4.38,4.41
1377,4.38,4.40
1378,4.38,4.40
1379,4.38,4.40
1381,4.38,4.40
1382,4.38,4.40
1383,4.38,4.39
1384,4.38,4.39
1385,4.38,4.39
1386,4.38,4.39
1387,4.38,4.39
1388,4.38,4.39
1390,4.38,4.39
1391,4.38,4.39
1392,4.38,4.39
1393,4.38,4.39
1394,4.38,4.39
1395,4.38,4.39
1396,4.38,4.39
1397,4.38,4.39
1399,4.38,4.38
1400,4.38,4.39
1401,4.38,4.39
1402,4.38,4.39
1403,4.38,4.39
1404,4.38,4.39
1405,4.38,4.39
1406,4.38,4.39
1409,4.38,4.39
1410,4.38,4.39
1411,4.38,4.39
1412,4.38,4.39
1413,4.38,4.39
1414,4.38,4.39
1415,4.38,4.39
1416,4.38,4.39
1418,4.38,4.39
1419,4.38,4.39
1420,4.38,4.39
1421,4.38,4.39
1422,4.38,4.39
1423,4.38,4.40
1424,4.38,4.40
1425,4.38,4.40
1427,4.38,4.40
1428,4.39,4.40
1429,4.39,4.40
1430,4.38,4.40
1431,4.38,4.40
1432,4.38,4.40
1433,4.39,4.40
1434,4.38,4.40
1436,4.39,4.40
1437,4.38,4.40
1438,4.39,4.40
1439,4.39,4.41
1440,4.38,4.41
1441,4.38,4.41
1442,4.38,4.41
1443,4.38,4.41
1445,4.38,4.41
1446,4.39,4.41
1447,4.39,4.41
1448,4.38,4.41
1449,4.38,4.41
1451,4.38,4.41
1452,4.38,4.41
1453,4.38,4.41
1455,4.39,4.41
1456,4.38,4.41
1457,4.38,4.41
1458,4.38,4.41
1459,4.38,4.41
1460,4.38,4.41
1461,4.38,4.41
1462,4.38,4.41
1464,4.38,4.41
1465,4.38,4.41
1466,4.38,4.41
1467,4.39,4.41
1468,4.38,4.41
1469,4.38,4.41
1470,4.39,4.41
1471,4.39,4.41
1473,4.39,4.40
1474,4.39,4.40
1475,4.39,4.40
1476,4.39,4.41
1477,4.38,4.41
1478,4.38,4.41
1479,4.38,4.41
1480,4.38,4.41
1482,4.38,4.41
1483,4.38,4.41
1484,4.38,4.41
1485,4.38,4.41
1486,4.38,4.41
1487,4.38,4.41
1488,4.39,4.42
1489,4.39,4.42
1491,4.39,4.42
1492,4.38,4.42
1494,4.39,4.43
1495,4.39,4.43
1496,4.39,4.43
1497,4.39,4.43
1498,4.39,4.43
1499,4.39,4.44
1501,4.39,4.44
1502,4.39,4.45
1503,4.39,4.45
1504,4.39,4.45
1505,4.39,4.45
1506,4.39,4.46
1507,4.39,4.46
1508,4.39,4.46
1510,4.39,4.47
1511,4.39,4.47
1512,4.39,4.47
1513,4.39,4.47
1514,4.39,4.48
1515,4.39,4.48
1516,4.39,4.49
1517,4.39,4.49
1519,4.39,4.49
1520,4.39,4.49
1521,4.39,4.50
1522,4.39,4.50
1523,4.39,4.51
1524,4.39,4.51
1525,4.39,4.51
1526,4.39,4.51
1528,4.39,4.52
1529,4.39,4.52
1530,4.39,4.52
1531,4.39,4.52
1532,4.39,4.53
1533,4.39,4.53
1534,4.39,4.53
1536,4.39,4.53
1538,4.39,4.54
1539,4.39,4.54
1540,4.39,4.54
1541,4.39,4.54
1542,4.39,4.54
1543,4.39,4.55
1544,4.39,4.55
1546,4.39,4.55
1547,4.39,4.55
1548,4.39,4.56
1549,4.39,4.56
1550,4.39,4.56
1551,4.39,4.56
1552,4.39,4.56
1553,4.39,4.57
1555,4.39,4.57
1556,4.39,4.57
1557,4.39,4.57
1558,4.39,4.57
1559,4.39,4.57
1560,4.39,4.57
1561,4.39,4.57
1562,4.39,4.58
1564,4.39,4.58
1565,4.39,4.58
1566,4.39,4.59
1567,4.39,4.59
1568,4.39,4.59
1569,4.39,4.60
1570,4.39,4.60
1571,4.39,4.60
1573,4.39,4.61
1574,4.39,4.61
1575,4.39,4.61
1576,4.39,4.61
1577,4.39,4.61
1579,4.39,4.62
1580,4.39,4.62
1581,4.39,4.62
1583,4.39,4.62
1584,4.39,4.63
1585,4.39,4.63
1586,4.39,4.63
1587,4.39,4.63
1588,4.39,4.63
1589,4.39,4.63
1590,4.39,4.63
1592,4.39,4.63
1593,4.39,4.63
1594,4.39,4.64
1595,4.39,4.64
1596,4.40,4.64
1597,4.39,4.64
1598,4.39,4.64
1599,4.39,4.64
1601,4.39,4.64
1602,4.39,4.64
1603,4.39,4.64
1604,4.39,4.65
1605,4.39,4.65
1606,4.40,4.65
1607,4.39,4.65
1608,4.39,4.65
1610,4.39,4.65
1611,4.40,4.65
1612,4.39,4.65
1613,4.40,4.66
1614,4.39,4.66
1615,4.40,4.66
1616,4.40,4.66
1617,4.39,4.66
1619,4.39,4.66
1620,4.40,4.66
1622,4.40,4.66
1623,4.39,4.67
1624,4.40,4.67
1625,4.40,4.67
1626,4.40,4.67
1627,4.40,4.68
1628,4.40,4.68
1630,4.40,4.68
1631,4.40,4.68
1632,4.40,4.68
1633,4.40,4.69
1634,4.40,4.69
1635,4.40,4.69
1636,4.40,4.70
1637,4.40,4.70
1639,4.40,4.70
1640,4.40,4.71
1641,4.40,4.71
1642,4.40,4.71
1643,4.40,4.71
1644,4.40,4.71
1645,4.40,4.71
1646,4.40,4.72
1648,4.40,4.72
1649,4.40,4.72
1650,4.40,4.72
1651,4.40,4.71
1652,4.40,4.71
1653,4.40,4.71
1654,4.40,4.71
1655,4.40,4.71
1657,4.40,4.71
1658,4.40,4.70
1659,4.40,4.70
1660,4.40,4.70
1661,4.40,4.70
1662,4.40,4.70
1664,4.40,4.70
1665,4.40,4.69
1667,4.40,4.69
1668,4.40,4.69
1669,4.40,4.69
1670,4.40,4.69
1671,4.40,4.69
1672,4.40,4.68
1673,4.40,4.68
1674,4.40,4.68
1675,4.40,4.68
1677,4.40,4.68
1678,4.40,4.67
1679,4.40,4.67
1680,4.40,4.67
1681,4.40,4.67
1682,4.40,4.67
1683,4.40,4.67
1684,4.40,4.66
1686,4.40,4.66
1687,4.40,4.66
1688,4.40,4.66
1689,4.40,4.65
1690,4.40,4.65
1691,4.40,4.65
1692,4.40,4.65
1693,4.40,4.65
1694,4.40,4.65
1696,4.40,4.65
1697,4.40,4.64
1698,4.40,4.64
1699,4.40,4.64
1700,4.40,4.64
1701,4.40,4.64
1702,4.40,4.63
1703,4.40,4.64
1705,4.40,4.64
1707,4.40,4.64
1708,4.40,4.64
1709,4.40,4.64
1710,4.40,4.63
1711,4.40,4.63
1712,4.41,4.63
1713,4.40,4.63
1715,4.41,4.63
1716,4.41,4.63
1717,4.40,4.63
1718,4.40,4.63
1719,4.40,4.63
1720,4.40,4.63
1721,4.40,4.63
1722,4.40,4.63
1724,4.40,4.63
1725,4.40,4.63
1726,4.40,4.63
1727,4.40,4.63
1728,4.40,4.63
1729,4.40,4.63
1730,4.40,4.63
1731,4.40,4.63
1732,4.41,4.64
1734,4.40,4.64
1735,4.41,4.64
1736,4.41,4.64
1737,4.41,4.64
1738,4.41,4.64
1739,4.41,4.64
1740,4.41,4.64
1741,4.41,4.64
1743,4.41,4.64
1744,4.41,4.64
1745,4.41,4.64
1746,4.41,4.65
1747,4.41,4.65
1748,4.41,4.65
1750,4.41,4.65
1751,4.41,4.65
1753,4.41,4.65
1754,4.41,4.65
1755,4.41,4.65
1756,4.41,4.65
1757,4.41,4.65
1758,4.41,4.66
1759,4.41,4.66
1760,4.41,4.66
1762,4.41,4.66
1763,4.41,4.66
1764,4.41,4.66
1765,4.41,4.66
1766,4.41,4.66
1767,4.42,4.66
1768,4.41,4.67
1769,4.41,4.67
1771,4.41,4.67
1772,4.41,4.67
1773,4.41,4.67
1774,4.42,4.67
1775,4.42,4.67
1776,4.42,4.67
1777,4.42,4.67
1778,4.42,4.67
1780,4.42,4.68
1781,4.42,4.67
1782,4.42,4.68
1783,4.42,4.68
1784,4.42,4.68
1785,4.42,4.68
1786,4.42,4.68
1787,4.42,4.68
1789,4.42,4.68
1790,4.42,4.68
1792,4.42,4.69
1793,4.42,4.69
1794,4.42,4.68
1795,4.42,4.69
1796,4.42,4.69
1798,4.42,4.69
1799,4.42,4.69
1800,4.42,4.69
1801,4.42,4.69
1802,4.42,4.69
1803,4.42,4.69
1804,4.42,4.70
1805,4.42,4.70
1807,4.42,4.70
1808,4.42,4.70
1809,4.42,4.70
1810,4.42,4.70
1811,4.42,4.70
1812,4.42,4.70
1813,4.42,4.69
1814,4.40,4.65
1816,4.37,4.63
1817,4.35,4.62
1818,4.35,4.61
1819,4.34,4.60
1820,4.33,4.57
1821,4.30,4.53
1822,4.26,4.49
1823,4.21,4.45
1825,4.19,4.44
1826,4.17,4.43
1827,4.16,4.43
1828,4.16,4.43
1829,4.16,4.43
1830,4.15,4.41
1831,4.13,4.38
1832,4.11,4.37
1835,4.10,4.36
1836,4.10,4.36
1837,4.10,4.34
1838,4.08,4.31
1839,4.04,4.27
1840,4.01,4.23
1841,3.98,4.22
1842,3.97,4.21
1844,3.97,4.22
1845,3.97,4.22
1846,3.98,4.23
1847,3.99,4.23
1848,3.98,4.20
1849,3.97,4.19
1850,3.96,4.19
1851,3.97,4.20
1853,3.98,4.19
1854,3.97,4.17
1855,3.95,4.14
1856,3.93,4.11
1857,3.91,4.09
1858,3.90,4.09
1859,3.90,4.09
1860,3.91,4.11
1862,3.92,4.12
1863,3.94,4.13
1864,3.94,4.12
1865,3.93,4.10
1866,3.92,4.10
1867,3.93,4.10
1868,3.94,4.09
1869,3.93,4.08
1871,3.91,4.05
1872,3.90,4.02
1873,3.87,3.99
1874,3.85,3.99
1875,3.85,3.99
1876,3.86,4.01
1878,3.88,4.03
1880,3.90,4.05
1881,3.91,4.04
1882,3.91,4.03
1883,3.90,4.02
1884,3.91,4.03
1885,3.91,4.04
1886,3.91,4.02
1887,3.91,4.00
1889,3.89,3.98
1890,3.87,3.95
1891,3.84,3.93
1892,3.84,3.94
1893,3.84,3.96
1894,3.86,3.97
1895,3.88,4.00
1896,3.90,4.01
1898,3.91,4.00
1899,3.90,3.98
1900,3.89,3.99
1901,3.90,4.00
1902,3.91,3.99
1903,3.91,3.97
1904,3.89,3.95
1905,3.87,3.92
1907,3.84,3.91
1908,3.83,3.91
1909,3.83,3.91
1910,3.84,3.93
1911,3.86,3.96
1912,3.88,3.97
1913,3.90,3.97
1914,3.89,3.96
1916,3.89,3.96
1917,3.89,3.97
1918,3.90,3.97
1920,3.90,3.95
1921,3.89,3.93
1922,3.87,3.91
1923,3.84,3.89
1924,3.82,3.88
1926,3.82,3.88
1927,3.82,3.90
1928,3.84,3.92
1929,3.86,3.95
1930,3.88,3.95
1931,3.89,3.94
1932,3.88,3.93
1933,3.88,3.94
1935,3.89,3.95
1936,3.89,3.94
1937,3.88,3.92
1938,3.87,3.90
1939,3.85,3.88
1940,3.82,3.86
1941,3.81,3.86
1942,3.81,3.87
1944,3.82,3.89
1945,3.84,3.91
1946,3.87,3.93
1947,3.88,3.93
1948,3.88,3.92
1949,3.87,3.91
1950,3.87,3.92
1951,3.88,3.92
1953,3.87,3.91
1954,3.86,3.89
1955,3.84,3.87
1956,3.81,3.84
1957,3.79,3.83
1958,3.78,3.84
1959,3.79,3.86
1960,3.81,3.88
1963,3.84,3.91
1964,3.86,3.91
1965,3.86,3.91
1966,3.85,3.89
1967,3.85,3.90
1968,3.86,3.90
1969,3.86,3.89
1971,3.85,3.88
1972,3.83,3.85
1973,3.81,3.83
1974,3.78,3.81
1975,3.77,3.82
1976,3.78,3.83
1977,3.79,3.86
1978,3.82,3.88
1980,3.84,3.90
1981,3.85,3.89
1982,3.85,3.88
1983,3.84,3.88
1984,3.85,3.89
1985,3.85,3.89
1986,3.85,3.87
1987,3.83,3.85
1989,3.81,3.83
1990,3.79,3.81
1991,3.77,3.81
1992,3.77,3.82
1993,3.78,3.84
1994,3.81,3.87
1995,3.83,3.89
1996,3.85,3.89
1998,3.85,3.89
1999,3.84,3.88
2000,3.84,3.89
2001,3.85,3.89
2002,3.85,3.88
2003,3.84,3.86
2004,3.82,3.84
2006,3.80,3.82
2008,3.78,3.80
2009,3.77,3.81
2010,3.78,3.83
2011,3.80,3.85
2012,3.82,3.88
2013,3.85,3.89
2014,3.86,3.89
2016,3.85,3.88
2017,3.85,3.88
2018,3.86,3.89
2019,3.86,3.89
2020,3.86,3.87
2021,3.84,3.85
2022,3.82,3.83
2023,3.80,3.81
2025,3.78,3.81
2026,3.78,3.82
2027,3.80,3.85
2028,3.82,3.87
2029,3.85,3.90
2030,3.87,3.90
2031,3.87,3.89
2032,3.86,3.88
2034,3.86,3.90
2035,3.87,3.89
2036,3.87,3.88
2037,3.85,3.86
2038,3.83,3.84
2039,3.81,3.82
2040,3.79,3.81
2041,3.78,3.82
2043,3.79,3.84
2044,3.81,3.86
2045,3.84,3.89
2046,3.87,3.90
2048,3.87,3.90
2049,3.86,3.89
2050,3.86,3.89
2051,3.87,3.90
2053,3.87,3.89
2054,3.86,3.87
2055,3.84,3.85
2056,3.82,3.83
2057,3.80,3.81
2058,3.79,3.81
2059,3.79,3.83
2061,3.80,3.85
2062,3.83,3.88
2063,3.86,3.90
2064,3.87,3.90
2065,3.87,3.89
2066,3.86,3.88
2067,3.86,3.89
2068,3.87,3.89
2070,3.86,3.87
2071,3.85,3.85
2072,3.83,3.83
2073,3.80,3.81
2074,3.79,3.80
2075,3.78,3.82
2076,3.79,3.84
2077,3.81,3.86
2079,3.84,3.89
2080,3.86,3.90
2081,3.87,3.89
2082,3.86,3.88
2083,3.86,3.89
2084,3.87,3.89
2085,3.87,3.88
2086,3.86,3.87
2088,3.84,3.84
2089,3.82,3.82
2091,3.79,3.81
2092,3.78,3.81
2093,3.79,3.83
2094,3.81,3.85
2095,3.83,3.88
2096,3.86,3.90
2098,3.87,3.90
2099,3.87,3.89
2100,3.86,3.89
2101,3.87,3.90
2102,3.88,3.90
2103,3.87,3.88
2104,3.86,3.86
2105,3.84,3.84
2107,3.81,3.81
2108,3.79,3.81
2109,3.79,3.83
2110,3.81,3.85
2111,3.83,3.88
2112,3.86,3.91
2113,3.88,3.91
2114,3.88,3.90
2116,3.87,3.89
2117,3.87,3.91
2118,3.88,3.91
2119,3.88,3.90
2120,3.87,3.88
2121,3.85,3.85
2122,3.83,3.83
2123,3.81,3.82
2125,3.80,3.83
2126,3.81,3.85
2127,3.83,3.87
2128,3.85,3.90
2129,3.88,3.91
2130,3.88,3.91
2131,3.88,3.90
2134,3.87,3.91
2135,3.88,3.91
2136,3.89,3.91
2137,3.88,3.89
2138,3.87,3.87
2139,3.84,3.85
2140,3.82,3.83
2141,3.80,3.83
2143,3.81,3.84
2144,3.82,3.86
2145,3.85,3.90
2146,3.87,3.91
2147,3.88,3.91
2148,3.88,3.91
2149,3.88,3.91
2150,3.88,3.91
2152,3.89,3.91
2153,3.89,3.90
2154,3.88,3.89
2155,3.86,3.86
2156,3.83,3.84
2157,3.81,3.83
2158,3.81,3.84
2159,3.82,3.86
2161,3.84,3.89
2162,3.86,3.91
2163,3.89,3.92
2164,3.89,3.91
2165,3.88,3.91
2166,3.88,3.91
2167,3.89,3.92
2169,3.89,3.91
2170,3.89,3.90
2171,3.87,3.87
2172,3.84,3.85
2173,3.82,3.83
2174,3.81,3.84
2176,3.81,3.85
2177,3.83,3.88
2179,3.85,3.91
2180,3.88,3.92
2181,3.89,3.92
2182,3.88,3.91
2183,3.88,3.91
2184,3.88,3.92
2185,3.89,3.91
2186,3.89,3.90
2188,3.87,3.88
2189,3.85,3.86
2190,3.83,3.84
2191,3.81,3.83
2192,3.81,3.84
2193,3.82,3.86
2194,3.84,3.89
2195,3.86,3.91
2197,3.88,3.92
2198,3.88,3.91
2199,3.88,3.91
2200,3.88,3.91
2201,3.89,3.92
2202,3.89,3.91
2203,3.88,3.89
2204,3.86,3.87
2206,3.84,3.85
2207,3.81,3.83
2208,3.81,3.84
2209,3.81,3.86
2210,3.83,3.88
2211,3.85,3.91
2212,3.88,3.92
2213,3.89,3.92
2215,3.88,3.91
2216,3.88,3.91
2217,3.88,3.92
2219,3.89,3.91
2220,3.88,3.90
2221,3.87,3.88
2222,3.85,3.86
2223,3.82,3.84
2225,3.81,3.83
2226,3.81,3.85
2227,3.82,3.87
2228,3.84,3.90
2229,3.87,3.92
2230,3.88,3.92
2231,3.88,3.91
2233,3.87,3.90
2234,3.87,3.91
2235,3.88,3.91
2236,3.88,3.90
2237,3.87,3.88
2238,3.85,3.86
2239,3.83,3.84
2240,3.81,3.83
2242,3.80,3.83
2243,3.81,3.85
2244,3.83,3.88
2245,3.85,3.91
2246,3.87,3.91
2247,3.88,3.91
2248,3.87,3.90
2249,3.87,3.91
2251,3.88,3.91
2252,3.88,3.91
2253,3.87,3.89
2254,3.86,3.87
2255,3.84,3.85
2256,3.81,3.83
2257,3.80,3.83
2258,3.80,3.84
2260,3.82,3.87
2262,3.84,3.89
2263,3.87,3.91
2264,3.88,3.91
2265,3.88,3.90
2266,3.87,3.90
2267,3.87,3.91
2268,3.88,3.90
2270,3.87,3.89
2271,3.86,3.87
2272,3.84,3.85
2273,3.81,3.82
2274,3.79,3.82
2275,3.79,3.83
2276,3.80,3.85
2278,3.82,3.87
2279,3.85,3.90
2280,3.87,3.90
2281,3.87,3.90
2282,3.86,3.89
2283,3.86,3.90
2284,3.87,3.90
2285,3.87,3.89
2287,3.86,3.87
2288,3.85,3.86
2289,3.82,3.83
2290,3.80,3.82
2291,3.79,3.82
2292,3.80,3.84
2293,3.82,3.87
2294,3.84,3.90
2296,3.87,3.91
2297,3.88,3.91
2298,3.88,3.90
2299,3.87,3.91
2300,3.88,3.91
2301,3.89,3.91
2302,3.89,3.90
2304,3.88,3.88
2306,3.86,3.86
2307,3.83,3.84
2308,3.81,3.83
2309,3.81,3.85
2310,3.83,3.87
2311,3.85,3.90
2312,3.88,3.92
2313,3.90,3.93
2315,3.90,3.92
2316,3.89,3.91
2317,3.89,3.92
2318,3.91,3.93
2319,3.90,3.91
2320,3.89,3.90
2321,3.87,3.88
2322,3.85,3.85
2324,3.83,3.84
2325,3.81,3.84
2326,3.82,3.86
2327,3.84,3.88
2328,3.87,3.91
2329,3.89,3.92
2330,3.90,3.92
2331,3.89,3.91
2333,3.89,3.91
2334,3.89,3.92
2335,3.90,3.91
2336,3.89,3.90
2337,3.88,3.88
2338,3.85,3.86
2339,3.83,3.84
2340,3.81,3.83
2342,3.81,3.85
2343,3.83,3.87
2344,3.85,3.90
2345,3.87,3.92
2347,3.89,3.93
2348,3.89,3.91
2349,3.89,3.91
2350,3.89,3.93
2352,3.91,3.93
2353,3.90,3.92
2354,3.89,3.90
2355,3.87,3.88
2356,3.85,3.85
2357,3.83,3.84
2358,3.82,3.85
2359,3.83,3.87
2361,3.85,3.90
2362,3.87,3.92
2363,3.90,3.94
2364,3.91,3.93
2365,3.90,3.92
2366,3.90,3.93
2367,3.91,3.95
2368,3.92,3.94
2370,3.91,3.92
2371,3.90,3.91
2372,3.88,3.88
2373,3.86,3.86
2374,3.84,3.86
2375,3.84,3.88
2376,3.86,3.90
2377,3.88,3.92
2379,3.91,3.95
2380,3.92,3.95
2381,3.92,3.94
2382,3.92,3.94
2383,3.92,3.96
2384,3.93,3.95
2385,3.93,3.94
2386,3.92,3.92
2388,3.90,3.90
2390,3.88,3.88
2391,3.85,3.87
2392,3.85,3.88
2393,3.85,3.89
2394,3.87,3.91
2395,3.90,3.94
2396,3.92,3.95
2398,3.92,3.94
2399,3.91,3.94
2400,3.92,3.95
2401,3.94,3.96
2402,3.94,3.96
2403,3.94,3.94
2404,3.92,3.92
2405,3.90,3.90
2407,3.88,3.88
2408,3.87,3.89
2409,3.87,3.91
2410,3.89,3.93
2411,3.91,3.96
2412,3.94,3.98
2413,3.95,3.98
2414,3.95,3.98
2416,3.95,3.98
2417,3.97,4.00
2418,3.98,4.00
2419,3.98,3.99
2420,3.96,3.97
2421,3.94,3.94
2422,3.92,3.92
2423,3.90,3.91
2425,3.90,3.92
2426,3.91,3.94
2427,3.93,3.97
2428,3.95,4.00
2429,3.97,4.02
2430,3.98,4.01
2432,3.98,4.01
2433,3.99,4.03
2435,4.00,4.05
2436,4.02,4.05
2437,4.02,4.04
2438,4.01,4.01
2439,3.98,3.99
2440,3.97,3.98
2441,3.97,4.00
2442,3.97,4.01
2444,3.99,4.04
2445,4.01,4.06
2446,4.04,4.09
2447,4.06,4.12
2448,4.09,4.14
2449,4.11,4.17
2450,4.13,4.20
2451,4.16,4.22
2453,4.19,4.25
2454,4.21,4.28
2455,4.24,4.31
2456,4.26,4.33
2457,4.28,4.35
2458,4.30,4.38
2459,4.33,4.40
2460,4.35,4.42
2462,4.36,4.44
2463,4.38,4.46
2464,4.40,4.48
2465,4.41,4.50
2466,4.43,4.52
2467,4.44,4.54
2468,4.46,4.55
2469,4.47,4.57
2471,4.48,4.58
2472,4.49,4.59
2473,4.50,4.60
2475,4.50,4.61
2476,4.51,4.62
2477,4.52,4.63
2478,4.52,4.64
2479,4.52,4.65
2481,4.53,4.66
2482,4.53,4.67
2483,4.53,4.67
2484,4.53,4.68
2485,4.53,4.69
2486,4.53,4.69
2487,4.53,4.70
2488,4.53,4.70
2490,4.53,4.70
2491,4.52,4.71
2492,4.52,4.71
2493,4.52,4.71
2494,4.52,4.72
2495,4.52,4.72
2496,4.51,4.72
2498,4.51,4.72
2499,4.51,4.73
2500,4.50,4.73
2501,4.50,4.73
2502,4.50,4.73
2503,4.49,4.73
2504,4.49,4.73
2505,4.49,4.73
2507,4.48,4.74
2508,4.48,4.74
2509,4.48,4.74
2510,4.47,4.74
2511,4.47,4.74
2512,4.47,4.74
2513,4.46,4.74
2514,4.46,4.74
2516,4.46,4.74
2518,4.46,4.74
2519,4.45,4.75
2520,4.45,4.75
2521,4.45,4.75
2522,4.45,4.75
2523,4.45,4.75
2524,4.44,4.75
2526,4.44,4.75
2527,4.44,4.75
2528,4.44,4.75
2529,4.44,4.76
2530,4.44,4.76
2531,4.44,4.76
2532,4.43,4.76
2534,4.43,4.76
2535,4.43,4.76
2536,4.43,4.77
2537,4.43,4.77
2538,4.43,4.77
2539,4.43,4.77
2540,4.43,4.77
2541,4.43,4.77
2543,4.43,4.77
2544,4.43,4.77
2545,4.43,4.77
2546,4.43,4.78
2547,4.43,4.78
2548,4.43,4.78
2549,4.43,4.78
2551,4.43,4.78
2552,4.43,4.78
2553,4.43,4.78
2554,4.43,4.78
2555,4.43,4.78
2556,4.43,4.78
2557,4.43,4.78
2558,4.43,4.78
2561,4.43,4.78
2562,4.43,4.78
2563,4.43,4.79
2564,4.43,4.79
2565,4.43,4.79
2566,4.43,4.79
2567,4.43,4.79
2568,4.43,4.79
2570,4.43,4.79
2571,4.43,4.79
2572,4.43,4.80
2573,4.43,4.80
2574,4.43,4.80
2575,4.43,4.80
2576,4.43,4.80
2577,4.43,4.80
2579,4.43,4.80
2580,4.43,4.80
2581,4.43,4.80
2582,4.43,4.80
2583,4.43,4.81
2584,4.43,4.81
2585,4.43,4.81
2586,4.43,4.81
2588,4.43,4.81
2589,4.43,4.81
2590,4.43,4.81
2591,4.42,4.81
2592,4.43,4.81
2593,4.42,4.81
2594,4.42,4.82
2595,4.42,4.82
2597,4.43,4.82
2598,4.42,4.82
2599,4.42,4.82
2600,4.42,4.82
2601,4.42,4.82
2603,4.42,4.82
2604,4.42,4.82
2605,4.42,4.82
2607,4.42,4.82
2608,4.42,4.82
2609,4.42,4.82
2610,4.42,4.82
2611,4.42,4.82
2612,4.42,4.83
2613,4.42,4.83
2614,4.42,4.83
2616,4.42,4.83
2617,4.42,4.83
2618,4.42,4.83
2619,4.42,4.83
2620,4.42,4.84
2621,4.42,4.84
2622,4.42,4.84
2623,4.42,4.84
2625,4.42,4.84
2626,4.42,4.84
2627,4.42,4.84
2628,4.42,4.84
2629,4.42,4.84
2630,4.42,4.84
2631,4.42,4.84
2632,4.42,4.85
2634,4.42,4.85
2635,4.42,4.85
2636,4.42,4.85
2637,4.42,4.85
2638,4.42,4.85
2639,4.42,4.85
2640,4.42,4.85
2641,4.42,4.85
2643,4.42,4.85
2644,4.42,4.85
2646,4.42,4.86
2647,4.42,4.86
2648,4.42,4.86
2649,4.42,4.86
2650,4.42,4.86
2651,4.41,4.87
2653,4.41,4.87
2654,4.41,4.87
2655,4.41,4.87
2656,4.41,4.87
2657,4.42,4.87
2658,4.41,4.87
2659,4.41,4.88
2660,4.41,4.88
2662,4.41,4.88
2663,4.41,4.88
2664,4.42,4.88
2665,4.42,4.88
2666,4.42,4.88
2667,4.41,4.89
2668,4.42,4.89
2669,4.41,4.89
2671,4.41,4.89
2672,4.42,4.89
2673,4.42,4.89
2674,4.42,4.90
2675,4.41,4.90
2676,4.42,4.90
2677,4.41,4.90
2678,4.41,4.90
2680,4.41,4.90
2681,4.42,4.90
2682,4.41,4.91
2683,4.41,4.91
2684,4.41,4.91
2685,4.41,4.91
2686,4.41,4.91
2688,4.41,4.91
2690,4.41,4.91
2691,4.41,4.92
2692,4.41,4.92
2693,4.41,4.92
2694,4.41,4.92
2695,4.41,4.92
2696,4.41,4.92
2697,4.41,4.92
2699,4.41,4.92
2700,4.41,4.92
2701,4.41,4.92
2702,4.41,4.93
2703,4.41,4.93
2704,4.41,4.93
2705,4.41,4.93
2706,4.41,4.94
2708,4.41,4.94
2709,4.41,4.94
2710,4.41,4.94
2711,4.41,4.94
2712,4.41,4.94
2713,4.41,4.94
2714,4.41,4.94
2715,4.41,4.94
2717,4.41,4.95
2718,4.41,4.95
2719,4.41,4.95
2720,4.41,4.95
2721,4.41,4.95
2722,4.41,4.95
2723,4.41,4.95
2725,4.41,4.95
2726,4.41,4.95
2727,4.41,4.95
2728,4.41,4.95
2729,4.41,4.95
2731,4.41,4.95
2732,4.41,4.95
2733,4.41,4.95
2735,4.41,4.95
2736,4.41,4.95
2737,4.41,4.95
2738,4.41,4.95
2739,4.41,4.95
2740,4.41,4.95
2741,4.40,4.95
2742,4.41,4.95
2744,4.41,4.95
2745,4.41,4.95
2746,4.40,4.95
2747,4.40,4.95
2748,4.40,4.95
2749,4.40,4.95
2750,4.40,4.95
2752,4.40,4.95
2753,4.40,4.94
2754,4.40,4.94
2755,4.40,4.94
2756,4.40,4.94
2757,4.40,4.94
2758,4.40,4.94
2759,4.40,4.94
2760,4.40,4.94
2762,4.40,4.94
2763,4.40,4.94
2764,4.40,4.94
2765,4.40,4.93
2766,4.40,4.93
2767,4.40,4.93
2768,4.40,4.93
2770,4.40,4.93
2771,4.40,4.92
2772,4.40,4.92
2774,4.40,4.92
2775,4.40,4.92
2776,4.40,4.92
2777,4.40,4.91
2778,4.40,4.91
2779,4.40,4.91
2781,4.40,4.90
2782,4.40,4.90
2783,4.40,4.90
2784,4.40,4.89
2785,4.40,4.89
2786,4.40,4.89
2787,4.40,4.88
2788,4.40,4.88
2790,4.40,4.88
2791,4.40,4.87
2792,4.40,4.87
2793,4.40,4.87
2794,4.40,4.86
2795,4.40,4.86
2796,4.40,4.86
2797,4.40,4.85
2799,4.40,4.85
2800,4.40,4.84
2801,4.40,4.84
2802,4.40,4.84
2803,4.39,4.84
2804,4.40,4.83
2805,4.40,4.83
2806,4.40,4.82
2807,4.40,4.82
2809,4.39,4.82
2810,4.40,4.81
2811,4.39,4.81
2812,4.39,4.80
2813,4.39,4.80
2814,4.39,4.80
2816,4.39,4.79
2817,4.39,4.79
2819,4.39,4.78
2820,4.40,4.78
2821,4.39,4.78
2822,4.39,4.77
2823,4.39,4.77
2824,4.39,4.76
2825,4.39,4.75
2826,4.39,4.75
2828,4.39,4.75
2829,4.39,4.74
2830,4.39,4.74
2831,4.39,4.73
2832,4.39,4.72
2833,4.39,4.72
2834,4.39,4.71
2835,4.39,4.71
2837,4.39,4.70
2838,4.39,4.69
2839,4.39,4.69
2840,4.39,4.68
2841,4.39,4.67
2842,4.39,4.67
2843,4.39,4.66
2844,4.39,4.66
2846,4.39,4.65
2847,4.39,4.64
2848,4.39,4.64
2849,4.39,4.63
2850,4.39,4.62
2851,4.39,4.62
2852,4.39,4.61
2853,4.39,4.61
2855,4.39,4.60
2856,4.39,4.59
2857,4.39,4.59
2859,4.39,4.58
2860,4.39,4.57
2861,4.39,4.57
2862,4.38,4.57
2864,4.38,4.56
2865,4.38,4.55
2866,4.38,4.55
2867,4.38,4.54
2868,4.38,4.53
2869,4.38,4.53
2870,4.38,4.52
2871,4.38,4.52
2873,4.38,4.51
2874,4.38,4.51
2875,4.38,4.50
2876,4.38,4.50
2877,4.38,4.49
2878,4.38,4.48
2879,4.38,4.48
2880,4.38,4.48
2882,4.38,4.47
2883,4.38,4.47
2884,4.38,4.46
2885,4.38,4.46
2886,4.38,4.45
2887,4.38,4.45
2888,4.38,4.44
2889,4.38,4.44
2891,4.38,4.44
2892,4.38,4.43
2893,4.38,4.43
2894,4.38,4.43
2895,4.38,4.42
2896,4.38,4.42
2897,4.38,4.42
2898,4.38,4.41
2900,4.38,4.41
2902,4.38,4.41
2903,4.38,4.41
2904,4.38,4.40
2905,4.38,4.40
2906,4.38,4.40
2907,4.38,4.39
2908,4.37,4.39
2910,4.38,4.39
2911,4.38,4.39
2912,4.38,4.39
2913,4.38,4.38
2914,4.38,4.38
2915,4.37,4.38
2916,4.38,4.38
2917,4.37,4.38
2919,4.38,4.37
2920,4.38,4.37
2921,4.38,4.37
2922,4.37,4.37
2923,4.37,4.37
2924,4.38,4.37
2925,4.37,4.37
2926,4.38,4.37
2928,4.38,4.36
2929,4.38,4.36
2930,4.37,4.36
2931,4.37,4.36
2932,4.37,4.36
2933,4.37,4.36
2934,4.37,4.36
2935,4.38,4.36
2937,4.37,4.36
2938,4.37,4.36
2939,4.37,4.36
2940,4.37,4.36
2941,4.38,4.36
2942,4.38,4.36
2944,4.38,4.36
2945,4.38,4.36
2947,4.38,4.36
2948,4.38,4.36
2949,4.38,4.36
2950,4.38,4.36
2951,4.38,4.36
2952,4.38,4.36
2953,4.38,4.36
2954,4.38,4.36
2956,4.38,4.36
2957,4.38,4.36
2958,4.38,4.36
2959,4.38,4.36
2960,4.38,4.36
2961,4.38,4.36
2962,4.38,4.36
2963,4.38,4.36
2965,4.38,4.36
2966,4.38,4.36
2967,4.38,4.36
2968,4.38,4.37
2969,4.38,4.37
2970,4.38,4.37
2971,4.38,4.37
2972,4.38,4.37
2974,4.38,4.37
2975,4.38,4.37
2976,4.38,4.37
2977,4.38,4.37
2978,4.38,4.37
2979,4.38,4.37
2980,4.38,4.37
2981,4.38,4.37
2983,4.38,4.37
2984,4.38,4.38
2985,4.38,4.38
2987,4.38,4.38
2988,4.38,4.38
2989,4.38,4.38
2990,4.38,4.38
2991,4.38,4.38
2993,4.38,4.38
2994,4.38,4.38
2995,4.38,4.38
2996,4.38,4.38
2997,4.38,4.38
2998,4.38,4.38
2999,4.38,4.38
3000,4.38,4.38
3002,4.38,4.38
3003,4.38,4.38
3004,4.38,4.39
3005,4.38,4.38
3006,4.38,4.39
3007,4.38,4.39
3008,4.38,4.39
3009,4.38,4.39
3011,4.38,4.39
3012,4.38,4.39
3013,4.38,4.38
3014,4.38,4.38
3015,4.38,4.38
3016,4.38,4.38
3017,4.38,4.38
3018,4.38,4.38
3020,4.38,4.38
3021,4.38,4.38
3022,4.38,4.38
3023,4.38,4.38
3024,4.38,4.38
3025,4.38,4.38
3026,4.38,4.38
3027,4.38,4.38
3030,4.38,4.38
3031,4.38,4.39
3032,4.38,4.38
3033,4.38,4.38
3034,4.38,4.39
3035,4.38,4.39
3036,4.38,4.39
3037,4.38,4.39
3039,4.38,4.39
3040,4.38,4.40
3041,4.38,4.40
3042,4.38,4.40
3043,4.38,4.40
3044,4.38,4.40
3045,4.38,4.41
3046,4.38,4.41
3048,4.38,4.41
3049,4.38,4.42
3050,4.38,4.42
3051,4.38,4.42
3052,4.38,4.42
3053,4.38,4.43
3054,4.38,4.43
3055,4.38,4.43
3057,4.38,4.44
3058,4.38,4.44
3059,4.38,4.44
3060,4.39,4.45
3061,4.39,4.45
3062,4.39,4.45
3063,4.39,4.46
3064,4.38,4.46
3066,4.39,4.46
3067,4.39,4.47
3068,4.39,4.47
3069,4.39,4.47
3070,4.39,4.48
3072,4.39,4.48
3073,4.39,4.48
3074,4.39,4.49
3076,4.39,4.49
3077,4.39,4.49
3078,4.39,4.49
3079,4.39,4.50
3080,4.39,4.50
3081,4.39,4.50
3082,4.39,4.51
3083,4.39,4.51
3085,4.39,4.51
3086,4.39,4.51
3087,4.39,4.52
3088,4.39,4.52
3089,4.39,4.52
3090,4.39,4.52
3091,4.39,4.52
3092,4.38,4.53
3094,4.39,4.53
3095,4.39,4.53
3096,4.39,4.53
3097,4.39,4.53
3098,4.39,4.54
3099,4.39,4.54
3100,4.39,4.54
3102,4.39,4.54
3103,4.38,4.54
3104,4.39,4.55
3105,4.39,4.55
3106,4.39,4.55
3107,4.39,4.55
3108,4.39,4.56
3109,4.39,4.56
3111,4.39,4.56
3112,4.39,4.56
3113,4.39,4.56
3115,4.39,4.57
3116,4.39,4.57
3117,4.39,4.57
3118,4.39,4.57
3120,4.39,4.57
3121,4.39,4.57
3122,4.39,4.57
3123,4.39,4.57
3124,4.39,4.58
3125,4.39,4.58
3126,4.39,4.58
3127,4.39,4.58
3129,4.39,4.59
3130,4.39,4.59
3131,4.39,4.59
3132,4.39,4.59
3133,4.39,4.60
3134,4.39,4.60
3135,4.39,4.61
3136,4.39,4.61
3138,4.39,4.61
3139,4.39,4.61
3140,4.39,4.62
3141,4.39,4.62
3142,4.39,4.62
3143,4.39,4.62
3144,4.39,4.62
3145,4.39,4.62
3147,4.39,4.63
3148,4.39,4.63
3149,4.39,4.63
3150,4.39,4.63
3151,4.39,4.63
3152,4.39,4.63
3153,4.39,4.64
3154,4.39,4.63
3156,4.39,4.64
3158,4.39,4.64
3159,4.39,4.64
3160,4.39,4.64
3161,4.39,4.64
3162,4.39,4.65
3163,4.39,4.65
3164,4.39,4.65
3166,4.39,4.65
3167,4.39,4.65
3168,4.39,4.66
3169,4.39,4.66
3170,4.39,4.66
3171,4.39,4.67
3172,4.39,4.67
3173,4.39,4.67
3175,4.39,4.67
3176,4.39,4.68
3177,4.39,4.68
3178,4.39,4.68
3179,4.39,4.68
3180,4.39,4.69
3181,4.39,4.69
3182,4.39,4.69
3184,4.39,4.69
3185,4.39,4.69
3186,4.39,4.70
3187,4.40,4.70
3188,4.39,4.71
3189,4.39,4.71
3190,4.39,4.72
3191,4.39,4.72
3193,4.39,4.72
3194,4.40,4.73
3195,4.39,4.73
3196,4.40,4.74
3197,4.40,4.74
3198,4.40,4.74
3200,4.40,4.75
3201,4.40,4.75
3203,4.40,4.76
3204,4.40,4.76
3205,4.40,4.76
3206,4.40,4.77
3207,4.40,4.77
3208,4.40,4.77
3209,4.40,4.77
3210,4.40,4.78
3212,4.40,4.78
3213,4.40,4.78
3214,4.40,4.78
3215,4.40,4.78
3216,4.40,4.78
3217,4.40,4.78
3218,4.40,4.78
3219,4.40,4.78
3221,4.39,4.78
3222,4.39,4.78
3223,4.39,4.77
3224,4.40,4.77
3225,4.39,4.77
3226,4.39,4.77
3227,4.39,4.76
3228,4.39,4.76
3230,4.39,4.76
3231,4.40,4.76
3232,4.40,4.76
3233,4.39,4.75
3234,4.40,4.75
3235,4.40,4.75
3236,4.40,4.75
3237,4.40,4.74
3239,4.40,4.74
3240,4.40,4.74
3241,4.40,4.73
3243,4.40,4.73
3244,4.40,4.73
3245,4.40,4.73
3246,4.40,4.72
3247,4.40,4.72
3249,4.40,4.71
3250,4.40,4.71
3251,4.40,4.71
3252,4.40,4.70
3253,4.40,4.70
3254,4.40,4.70
3255,4.40,4.69
3256,4.40,4.69
3258,4.40,4.69
3259,4.40,4.68
3260,4.40,4.68
3261,4.39,4.68
3262,4.40,4.68
3263,4.40,4.67
3264,4.40,4.67
3265,4.40,4.67
3267,4.39,4.67
3268,4.40,4.66
3269,4.39,4.66
3270,4.40,4.66
3271,4.39,4.66
3272,4.40,4.66
3273,4.39,4.65
3274,4.40,4.65
3276,4.40,4.65
3277,4.40,4.65
3278,4.40,4.65
3279,4.40,4.65
3280,4.40,4.65
3281,4.40,4.65
3282,4.40,4.64
3283,4.39,4.64
3286,4.40,4.64
3287,4.40,4.64
3288,4.40,4.64
3289,4.40,4.64
3290,4.40,4.64
3291,4.40,4.64
3292,4.40,4.64
3293,4.40,4.64
3294,4.40,4.64
3296,4.40,4.64
3297,4.40,4.64
3298,4.40,4.64
3299,4.40,4.64
3300,4.40,4.64
3301,4.40,4.64
3302,4.40,4.64
3303,4.40,4.64
3305,4.40,4.64
3306,4.40,4.64
3307,4.40,4.64
3308,4.40,4.64
3309,4.40,4.64
3310,4.40,4.64
3311,4.40,4.64
3312,4.40,4.64
3314,4.40,4.64
3315,4.40,4.65
3316,4.40,4.65
3317,4.40,4.65
3318,4.40,4.65
3319,4.40,4.65
3320,4.40,4.65
3321,4.40,4.65
3323,4.40,4.65
3324,4.40,4.66
3325,4.40,4.66
3326,4.40,4.66
3328,4.40,4.66
3329,4.41,4.66
3330,4.40,4.66
3331,4.41,4.66
3332,4.41,4.66
3334,4.41,4.67
3335,4.41,4.67
3336,4.41,4.67
3337,4.41,4.67
3338,4.41,4.67
3339,4.41,4.67
3340,4.41,4.67
3341,4.41,4.68
3343,4.41,4.68
3344,4.41,4.68
3345,4.41,4.68
3346,4.41,4.68
3347,4.41,4.68
3348,4.41,4.68
3349,4.41,4.68
3351,4.41,4.68
3352,4.41,4.68
3353,4.41,4.69
3354,4.41,4.68
3355,4.41,4.69
3356,4.41,4.69
3357,4.41,4.69
3358,4.41,4.69
3360,4.41,4.69
3361,4.41,4.69
3362,4.41,4.69
3363,4.41,4.70
3364,4.41,4.70
3365,4.41,4.70
3366,4.41,4.70
3367,4.41,4.70
3369,4.41,4.70
3371,4.41,4.70
3372,4.41,4.70
3373,4.41,4.70
3374,4.41,4.70
3375,4.41,4.70
3376,4.41,4.71
3377,4.41,4.71
3379,4.41,4.71
3380,4.41,4.68
3381,4.39,4.65
3382,4.37,4.64
3383,4.35,4.63
3384,4.35,4.62
3385,4.35,4.60
3386,4.32,4.57
3388,4.28,4.52
3389,4.24,4.48
3390,4.20,4.45
3391,4.18,4.44
3392,4.17,4.44
3393,4.16,4.44
3394,4.16,4.44
3395,4.16,4.43
3397,4.15,4.40
3398,4.13,4.39
3399,4.12,4.38
3400,4.12,4.38
3401,4.12,4.36
3402,4.10,4.34
3403,4.07,4.30
3405,4.04,4.26
3406,4.00,4.23
3407,3.98,4.22
3408,3.97,4.22
3409,3.98,4.23
3410,3.98,4.24
3411,3.99,4.24
3412,4.00,4.23
3415,3.98,4.21
3416,3.98,4.21
3417,3.98,4.21
3418,3.98,4.20
3419,3.97,4.17
3420,3.95,4.14
3421,3.92,4.11
3422,3.90,4.08
3424,3.88,4.07
3425,3.87,4.07
3426,3.88,4.08
3427,3.89,4.10
3428,3.91,4.11
3429,3.92,4.11
3430,3.91,4.09
3431,3.91,4.09
3433,3.91,4.10
3434,3.92,4.09
3435,3.92,4.08
3436,3.91,4.05
3437,3.90,4.02
3438,3.87,3.99
3439,3.85,3.98
3440,3.84,3.98
3442,3.84,3.99
3443,3.86,4.01
3444,3.88,4.03
3445,3.90,4.04
3446,3.91,4.03
3447,3.90,4.02
3448,3.90,4.02
3449,3.91,4.03
3451,3.91,4.02
3452,3.91,4.00
3453,3.89,3.98
3454,3.87,3.95
3456,3.85,3.92
3457,3.83,3.92
3458,3.83,3.93
3459,3.84,3.95
3461,3.86,3.97
3462,3.89,3.99
3463,3.90,3.99
3464,3.90,3.97
3465,3.89,3.97
3466,3.90,3.98
3467,3.91,3.98
3468,3.91,3.96
3470,3.89,3.94
3471,3.87,3.92
3472,3.85,3.90
3473,3.83,3.88
3474,3.82,3.89
3475,3.82,3.90
3476,3.84,3.92
3477,3.86,3.95
3479,3.88,3.95
3480,3.89,3.94
3481,3.88,3.94
3482,3.88,3.94
3483,3.89,3.95
3484,3.90,3.94
3485,3.89,3.93
3486,3.88,3.91
3488,3.85,3.89
3489,3.83,3.86
3490,3.81,3.86
3491,3.81,3.87
3492,3.83,3.90
3493,3.85,3.92
3494,3.87,3.94
3495,3.89,3.93
3497,3.89,3.92
3499,3.88,3.92
3500,3.89,3.93
3501,3.90,3.93
3502,3.89,3.92
3503,3.88,3.90
3504,3.86,3.88
3505,3.84,3.86
3507,3.81,3.85
3508,3.81,3.85
3509,3.82,3.87
3510,3.83,3.90
3511,3.86,3.92
3512,3.88,3.93
3513,3.89,3.92
3514,3.88,3.91
3516,3.88,3.92
3517,3.89,3.93
3518,3.89,3.92
3519,3.89,3.90
3520,3.87,3.88
3521,3.85,3.86
3522,3.82,3.84
3523,3.81,3.84
3525,3.81,3.86
3526,3.82,3.88
3527,3.85,3.91
3528,3.87,3.92
3529,3.89,3.92
3530,3.88,3.91
3531,3.88,3.91
3532,3.89,3.93
3534,3.90,3.92
3535,3.90,3.91
3536,3.88,3.90
3537,3.86,3.87
3538,3.84,3.85
3539,3.82,3.84
3540,3.81,3.85
3542,3.82,3.87
3544,3.84,3.90
3545,3.87,3.92
3546,3.89,3.93
3547,3.89,3.92
3548,3.88,3.91
3549,3.89,3.93
3550,3.90,3.93
3551,3.90,3.92
3553,3.89,3.91
3554,3.87,3.89
3555,3.85,3.86
3556,3.83,3.85
3557,3.82,3.85
3558,3.82,3.87
3559,3.84,3.89
3560,3.86,3.91
3562,3.88,3.93
3563,3.89,3.93
3564,3.89,3.91
3565,3.89,3.92
3566,3.89,3.93
3567,3.90,3.93
3568,3.90,3.91
3569,3.88,3.89
3571,3.86,3.87
3572,3.83,3.85
3573,3.81,3.84
3574,3.81,3.85
3575,3.82,3.87
3576,3.84,3.90
3577,3.87,3.92
3578,3.89,3.92
3580,3.89,3.91
3581,3.88,3.91
3582,3.88,3.92
3584,3.89,3.92
3585,3.89,3.91
3586,3.88,3.90
3587,3.86,3.87
3588,3.84,3.85
3590,3.82,3.84
3591,3.81,3.84
3592,3.81,3.86
3593,3.83,3.88
3594,3.85,3.91
3595,3.88,3.92
3596,3.88,3.91
3597,3.88,3.91
3599,3.87,3.91
3600,3.88,3.92
3601,3.89,3.91
3602,3.88,3.90
3603,3.87,3.88
3604,3.85,3.86
3605,3.82,3.84
3606,3.81,3.83
3608,3.80,3.85
3609,3.82,3.87
3610,3.84,3.89
3611,3.87,3.91
3612,3.88,3.91
3613,3.88,3.91
3614,3.87,3.91
3616,3.88,3.91
3617,3.89,3.91
3618,3.89,3.91
3619,3.87,3.89
3620,3.85,3.86
3621,3.83,3.84
3622,3.81,3.83
3623,3.80,3.83
3625,3.81,3.85
3627,3.82,3.88
3628,3.85,3.91
3629,3.87,3.91
3630,3.88,3.91
3631,3.87,3.90
3632,3.87,3.91
3633,3.88,3.91
3635,3.88,3.90
3636,3.87,3.88
3637,3.85,3.86
3638,3.83,3.84
3639,3.81,3.82
3640,3.79,3.82
3641,3.79,3.83
3642,3.81,3.86
3644,3.83,3.88
3645,3.86,3.90
3646,3.87,3.90
3647,3.87,3.89
3648,3.86,3.89
3649,3.87,3.90
3650,3.87,3.90
3651,3.87,3.88
3653,3.86,3.87
3654,3.84,3.84
3655,3.81,3.82
3656,3.79,3.81
3657,3.79,3.82
3658,3.79,3.84
3659,3.81,3.87
3660,3.84,3.89
3662,3.86,3.90
3663,3.87,3.89
3664,3.86,3.88
3665,3.86,3.89
3666,3.87,3.90
3667,3.87,3.89
3668,3.86,3.87
3670,3.84,3.85
3672,3.82,3.83
3673,3.80,3.81
3674,3.78,3.81
3675,3.79,3.83
3676,3.80,3.85
3677,3.83,3.88
3678,3.85,3.90
3680,3.87,3.90
3681,3.86,3.88
3682,3.86,3.89
3683,3.87,3.90
3684,3.87,3.89
3685,3.87,3.88
3686,3.85,3.86
3687,3.83,3.84
3689,3.81,3.81
3690,3.79,3.81
3691,3.79,3.82
3692,3.80,3.84
3693,3.82,3.87
3694,3.85,3.89
3695,3.87,3.90
3696,3.87,3.89
3698,3.86,3.88
3699,3.87,3.90
3700,3.87,3.90
3701,3.88,3.89
3702,3.86,3.87
3703,3.84,3.84
3704,3.82,3.82
3705,3.80,3.81
3707,3.79,3.81
3708,3.79,3.83
3709,3.81,3.86
3710,3.84,3.89
3712,3.86,3.90
3713,3.87,3.90
3714,3.87,3.89
3715,3.86,3.89
3717,3.88,3.90
3718,3.88,3.90
3719,3.87,3.88
3720,3.86,3.86
3721,3.84,3.84
3722,3.81,3.81
3723,3.79,3.81
3724,3.79,3.82
3726,3.81,3.85
3727,3.83,3.87
3728,3.86,3.90
3729,3.88,3.90
3730,3.88,3.89
3731,3.87,3.89
3732,3.87,3.90
3733,3.89,3.90
3735,3.88,3.89
3736,3.87,3.87
3737,3.85,3.85
3738,3.82,3.83
3739,3.80,3.81
3740,3.79,3.82
3741,3.80,3.84
3743,3.82,3.86
3744,3.85,3.89
3745,3.87,3.90
3746,3.88,3.90
3747,3.87,3.89
3748,3.87,3.90
3749,3.88,3.91
3750,3.89,3.90
3752,3.88,3.88
3753,3.86,3.86
3755,3.84,3.84
3756,3.81,3.82
3757,3.80,3.82
3758,3.80,3.83
3759,3.81,3.85
3760,3.84,3.88
3762,3.87,3.90
3763,3.88,3.90
3764,3.88,3.89
3765,3.87,3.89
3766,3.88,3.91
3767,3.89,3.90
3768,3.88,3.89
3769,3.87,3.87
3771,3.85,3.85
3772,3.82,3.82
3773,3.80,3.81
3774,3.80,3.82
3775,3.81,3.84
3776,3.82,3.87
3777,3.85,3.90
3778,3.88,3.90
3780,3.88,3.90
3781,3.87,3.89
3782,3.88,3.90
3783,3.89,3.91
3784,3.89,3.89
3785,3.87,3.88
3786,3.86,3.86
3787,3.83,3.83
3789,3.81,3.81
3790,3.80,3.82
3791,3.80,3.83
3792,3.81,3.86
3793,3.84,3.88
3794,3.87,3.90
3795,3.88,3.90
3798,3.88,3.89
3799,3.87,3.90
3800,3.88,3.91
3801,3.89,3.90
3802,3.88,3.88
3803,3.87,3.86
3804,3.84,3.84
3805,3.82,3.82
3807,3.80,3.81
3808,3.80,3.82
3809,3.81,3.85
3810,3.83,3.87
3811,3.86,3.90
3812,3.88,3.90
3813,3.88,3.89
3814,3.87,3.89
3816,3.87,3.90
3817,3.89,3.90
3818,3.89,3.89
3819,3.87,3.87
3820,3.85,3.85
3821,3.83,3.83
3822,3.81,3.81
3823,3.80,3.82
3825,3.80,3.83
3826,3.82,3.86
3827,3.84,3.89
3828,3.87,3.90
3829,3.88,3.90
3830,3.88,3.89
3831,3.87,3.90
3832,3.88,3.91
3834,3.89,3.90
3835,3.88,3.88
3836,3.86,3.86
3837,3.84,3.84
3838,3.82,3.82
3840,3.80,3.82
3841,3.80,3.83
3842,3.81,3.85
3844,3.84,3.88
3845,3.86,3.90
3846,3.88,3.90
3847,3.88,3.89
3848,3.88,3.89
3849,3.88,3.91
3850,3.89,3.91
3852,3.89,3.89
3853,3.88,3.87
3854,3.85,3.85
3855,3.83,3.83
3856,3.81,3.82
3857,3.80,3.83
3858,3.81,3.85
3859,3.83,3.87
3861,3.86,3.90
3862,3.88,3.91
3863,3.89,3.91
3864,3.88,3.90
3865,3.88,3.91
3866,3.90,3.91
3867,3.90,3.91
3868,3.89,3.89
3870,3.88,3.87
3871,3.85,3.85
3872,3.83,3.83
3873,3.81,3.83
3874,3.82,3.85
3875,3.83,3.87
3876,3.86,3.90
3877,3.88,3.92
3879,3.90,3.91
3880,3.90,3.91
3881,3.89,3.91
3883,3.90,3.92
3884,3.91,3.92
3885,3.90,3.91
3886,3.89,3.88
3887,3.87,3.86
3889,3.84,3.84
3890,3.82,3.83
3891,3.81,3.84
3892,3.83,3.86
3893,3.85,3.89
3894,3.87,3.91
3895,3.89,3.91
3896,3.90,3.91
3898,3.89,3.90
3899,3.89,3.91
3900,3.90,3.91
3901,3.90,3.90
3902,3.88,3.88
3903,3.86,3.86
3904,3.84,3.84
3905,3.82,3.82
3907,3.80,3.83
3908,3.81,3.84
3909,3.83,3.87
3910,3.85,3.90
3911,3.88,3.91
3912,3.89,3.91
3913,3.89,3.90
3914,3.88,3.91
3916,3.89,3.91
3917,3.90,3.91
3918,3.89,3.90
3919,3.88,3.88
3920,3.86,3.85
3921,3.83,3.83
3922,3.81,3.83
3924,3.81,3.84
3926,3.83,3.86
3927,3.85,3.89
3928,3.88,3.91
3929,3.89,3.91
3930,3.89,3.91
3931,3.89,3.90
3932,3.89,3.91
3934,3.90,3.91
3935,3.90,3.90
3936,3.88,3.88
3937,3.86,3.86
3938,3.84,3.84
3939,3.82,3.83
3940,3.81,3.84
3941,3.82,3.86
3943,3.84,3.88
3944,3.87,3.91
3945,3.90,3.93
3946,3.91,3.92
3947,3.91,3.92
3948,3.91,3.93
3949,3.92,3.95
3950,3.93,3.94
3952,3.93,3.93
3953,3.91,3.91
3954,3.89,3.89
3955,3.87,3.87
3956,3.86,3.88
3957,3.87,3.89
3958,3.88,3.91
3959,3.91,3.95
3961,3.93,3.97
3962,3.95,3.98
3963,3.96,3.98
3964,3.96,3.98
3965,3.97,4.00
3966,3.99,4.03
3968,4.01,4.03
3969,4.01,4.01
3971,4.00,4.00
3972,3.98,3.98
3973,3.97,3.98
3974,3.97,3.99
3975,3.99,4.01
3976,4.01,4.04
3977,4.03,4.07
3978,4.05,4.09
3980,4.08,4.12
3981,4.10,4.14
3982,4.13,4.17
3983,4.15,4.20
3984,4.18,4.23
3985,4.21,4.26
3986,4.23,4.28
3987,4.26,4.31
3989,4.28,4.33
3990,4.30,4.35
3991,4.33,4.38
3992,4.35,4.40
3993,4.36,4.42
3994,4.38,4.44
3995,4.40,4.46
3996,4.41,4.48
3998,4.43,4.50
3999,4.44,4.52
4000,4.45,4.53
4001,4.46,4.54
4002,4.47,4.56
4003,4.48,4.57
4004,4.49,4.58
4005,4.50,4.59
4007,4.50,4.60
4008,4.51,4.61
4009,4.51,4.62
4011,4.52,4.63
4012,4.52,4.64
4013,4.52,4.65
4014,4.53,4.65
4015,4.53,4.66
4017,4.53,4.66
4018,4.52,4.67
4019,4.53,4.67
4020,4.52,4.68
4021,4.52,4.68
4022,4.52,4.69
4023,4.52,4.69
4024,4.52,4.69
4026,4.51,4.70
4027,4.51,4.70
4028,4.51,4.70
4029,4.50,4.71
4030,4.50,4.71
4031,4.50,4.71
4032,4.49,4.71
4033,4.49,4.71
4035,4.49,4.71
4036,4.48,4.71
4037,4.48,4.71
4038,4.48,4.71
4039,4.47,4.72
4040,4.47,4.72
4041,4.47,4.72
4042,4.46,4.72
4044,4.46,4.72
4045,4.46,4.72
4046,4.46,4.72
4047,4.45,4.72
4048,4.45,4.73
4049,4.45,4.73
4050,4.45,4.73
4051,4.44,4.73
4054,4.44,4.73
4055,4.44,4.73
4056,4.44,4.73
4057,4.44,4.74
4058,4.44,4.74
4059,4.43,4.74
4060,4.43,4.74
4062,4.43,4.74
4063,4.43,4.74
4064,4.43,4.75
4065,4.43,4.75
4066,4.43,4.75
4067,4.43,4.75
4068,4.42,4.75
4069,4.42,4.75
4071,4.42,4.75
4072,4.43,4.75
4073,4.42,4.75
4074,4.42,4.76
4075,4.42,4.76
4076,4.42,4.76
4077,4.42,4.76
4078,4.42,4.76
4080,4.42,4.76
4081,4.42,4.76
4082,4.42,4.77
4083,4.42,4.77
4084,4.42,4.77
4085,4.42,4.77
4086,4.42,4.77
4088,4.42,4.77
4089,4.42,4.77
4090,4.42,4.77
4091,4.42,4.77
4092,4.42,4.78
4093,4.42,4.78
4094,4.42,4.78
4096,4.42,4.78
4098,4.42,4.78
4099,4.42,4.78
4100,4.42,4.78
4101,4.42,4.78
4102,4.42,4.78
4103,4.42,4.78
4104,4.42,4.78
4105,4.42,4.78
4107,4.42,4.78
4108,4.42,4.78
4109,4.42,4.79
4110,4.42,4.79
4111,4.42,4.79
4112,4.42,4.79
4113,4.42,4.79
4114,4.42,4.79
4116,4.42,4.79
4117,4.42,4.79
4118,4.42,4.79
4119,4.42,4.79
4120,4.42,4.80
4121,4.42,4.80
4122,4.42,4.80
4123,4.42,4.80
4125,4.42,4.80
4126,4.42,4.80
4127,4.42,4.80
4128,4.42,4.80
4129,4.42,4.80
4130,4.42,4.80
4131,4.42,4.80
4132,4.42,4.81
4134,4.42,4.81
4135,4.42,4.81
4136,4.42,4.81
4137,4.42,4.81
4139,4.42,4.81
4140,4.42,4.82
4141,4.42,4.82
4142,4.42,4.82
4144,4.41,4.82
4145,4.41,4.82
4146,4.41,4.82
4147,4.41,4.82
4148,4.41,4.82
4149,4.41,4.82
4150,4.41,4.82
4151,4.41,4.82
4153,4.41,4.82
4154,4.41,4.83
4155,4.41,4.83
4156,4.41,4.83
4157,4.41,4.83
4158,4.41,4.83
4159,4.41,4.83
4160,4.41,4.83
4162,4.41,4.83
4163,4.41,4.83
4164,4.41,4.84
4165,4.41,4.84
4166,4.41,4.84
4167,4.41,4.84
4168,4.41,4.84
4169,4.41,4.84
4171,4.41,4.84
4172,4.41,4.84
4173,4.41,4.84
4174,4.41,4.84
4175,4.41,4.85
4176,4.41,4.85
4177,4.41,4.85
4178,4.41,4.85
4180,4.41,4.85
4182,4.41,4.86
4183,4.41,4.86
4184,4.41,4.86
4185,4.41,4.86
4186,4.41,4.86
4187,4.41,4.87
4188,4.41,4.87
4190,4.41,4.87
4191,4.41,4.87
4192,4.41,4.87
4193,4.41,4.88
4194,4.41,4.88
4195,4.41,4.88
4196,4.41,4.88
4197,4.41,4.88
4199,4.41,4.89
4200,4.41,4.89
4201,4.41,4.89
4202,4.41,4.89
4203,4.41,4.89
4204,4.41,4.90
4205,4.41,4.90
4206,4.41,4.90
4208,4.41,4.91
4209,4.41,4.91
4210,4.41,4.91
4211,4.41,4.91
4212,4.41,4.92
4213,4.41,4.92
4214,4.41,4.92
4215,4.41,4.92
4217,4.41,4.93
4218,4.41,4.93
4219,4.40,4.93
4220,4.41,4.93
4221,4.41,4.93
4222,4.40,4.93
4224,4.41,4.93
4226,4.40,4.94
4227,4.41,4.94
4228,4.40,4.94
4229,4.40,4.94
4230,4.40,4.94
4231,4.40,4.94
4232,4.40,4.94
4233,4.40,4.94
4234,4.40,4.95
4236,4.40,4.95
4237,4.40,4.95
4238,4.40,4.95
4239,4.40,4.95
4240,4.40,4.95
4241,4.40,4.95
4242,4.40,4.95
4244,4.40,4.95
4245,4.40,4.95
4246,4.40,4.95
4247,4.40,4.95
4248,4.40,4.95
4249,4.40,4.95
4250,4.40,4.96
4251,4.40,4.96
4253,4.40,4.96
4254,4.40,4.96
4255,4.40,4.96
4256,4.40,4.96
4257,4.40,4.96
4258,4.40,4.96
4259,4.40,4.96
4260,4.40,4.96
4262,4.40,4.96
4263,4.40,4.96
4264,4.40,4.96
4265,4.40,4.96
4267,4.40,4.96
4268,4.40,4.96
4269,4.40,4.96
4270,4.40,4.96
4272,4.40,4.96
4273,4.40,4.96
4274,4.40,4.96
4275,4.40,4.97
4276,4.40,4.97
4277,4.40,4.97
4278,4.40,4.97
4279,4.40,4.97
4281,4.40,4.97
4282,4.40,4.97
4283,4.40,4.97
4284,4.40,4.97
4285,4.40,4.97
4286,4.40,4.97
4287,4.40,4.97
4288,4.40,4.97
4290,4.40,4.97
4291,4.40,4.97
4292,4.40,4.97
4293,4.40,4.97
4294,4.40,4.97
4295,4.40,4.97
4296,4.40,4.97
4298,4.40,4.97
4299,4.40,4.97
4300,4.40,4.97
4301,4.39,4.97
4302,4.40,4.97
4303,4.40,4.97
4304,4.40,4.97
4305,4.39,4.97
4307,4.39,4.97
4308,4.39,4.97
4310,4.39,4.97
4311,4.39,4.97
4312,4.39,4.97
4313,4.39,4.96
4314,4.40,4.96
4315,4.40,4.96
4317,4.39,4.96
4318,4.40,4.96
4319,4.39,4.96
4320,4.39,4.96
4321,4.39,4.96
4322,4.39,4.96
4323,4.39,4.95
4325,4.39,4.95
4326,4.40,4.95
4327,4.39,4.95
4328,4.40,4.95
4329,4.39,4.94
4330,4.40,4.94
4331,4.39,4.94
4332,4.39,4.94
4334,4.39,4.93
4335,4.40,4.93
4336,4.39,4.93
4337,4.39,4.92
4338,4.39,4.92
4339,4.39,4.92
4340,4.39,4.91
4341,4.39,4.91
4343,4.39,4.91
4344,4.39,4.90
4345,4.39,4.90
4346,4.40,4.89
4347,4.39,4.89
4348,4.39,4.89
4349,4.39,4.88
4350,4.39,4.88
4353,4.39,4.87
4354,4.39,4.87
4355,4.39,4.86
4356,4.39,4.86
4357,4.39,4.85
4358,4.39,4.85
4359,4.39,4.84
4360,4.39,4.84
4362,4.39,4.83
4363,4.39,4.83
4364,4.39,4.82
4365,4.39,4.81
4366,4.39,4.81
4367,4.39,4.80
4368,4.39,4.80
4369,4.39,4.79
4371,4.39,4.78
4372,4.39,4.78
4373,4.39,4.78
4374,4.39,4.77
4375,4.39,4.76
4376,4.39,4.76
4377,4.39,4.75
4378,4.39,4.75
4380,4.39,4.74
4381,4.39,4.73
4382,4.39,4.73
4383,4.39,4.72
4384,4.38,4.71
4385,4.38,4.71
4386,4.38,4.70
4387,4.38,4.70
4389,4.38,4.69
4390,4.38,4.68
4391,4.38,4.68
4392,4.38,4.67
4393,4.38,4.66
4395,4.38,4.66
4396,4.38,4.65
4397,4.38,4.65
4399,4.38,4.64
4400,4.38,4.64
4401,4.38,4.63
4402,4.38,4.63
4403,4.38,4.62
4404,4.38,4.61
4405,4.38,4.61
4406,4.38,4.60
4408,4.38,4.60
4409,4.38,4.59
4410,4.38,4.59
4411,4.38,4.58
4412,4.38,4.58
4413,4.38,4.57
4414,4.38,4.57
4415,4.38,4.57
4417,4.38,4.56
4418,4.38,4.56
4419,4.38,4.56
4420,4.38,4.55
4421,4.38,4.55
4422,4.38,4.54
4423,4.38,4.54
4424,4.38,4.53
4426,4.38,4.53
4427,4.38,4.52
4428,4.37,4.52
4429,4.38,4.52
4430,4.38,4.51
4431,4.38,4.51
4432,4.38,4.51
4434,4.38,4.50
4435,4.38,4.50
4436,4.38,4.50
4438,4.38,4.49
4439,4.38,4.49
4440,4.38,4.49
4441,4.38,4.48
4442,4.38,4.48
4444,4.38,4.48
4445,4.38,4.47
4446,4.38,4.47
4447,4.38,4.47
4448,4.38,4.47
4449,4.38,4.46
4450,4.38,4.46
4451,4.38,4.46
4453,4.38,4.46
4454,4.38,4.46
4455,4.38,4.45
4456,4.38,4.45
4457,4.38,4.45
4458,4.38,4.45
4459,4.38,4.45
4460,4.38,4.45
4462,4.38,4.44
4463,4.38,4.44
4464,4.38,4.44
4465,4.38,4.44
4466,4.38,4.44
4467,4.38,4.44
4468,4.38,4.43
4469,4.38,4.44
4471,4.38,4.43
4472,4.38,4.43
4473,4.38,4.43
4474,4.38,4.43
4475,4.38,4.43
4476,4.38,4.43
4477,4.38,4.43
4478,4.38,4.43
4481,4.38,4.43
4482,4.38,4.43
4483,4.38,4.43
4484,4.38,4.43
4485,4.38,4.43
4486,4.38,4.43
4487,4.38,4.43
4488,4.38,4.43
4490,4.38,4.43
4491,4.38,4.43
4492,4.38,4.43
4493,4.38,4.43
4494,4.38,4.42
4495,4.38,4.42
4496,4.38,4.42
4497,4.38,4.43
4499,4.38,4.43
4500,4.38,4.43
4501,4.38,4.43
4502,4.38,4.43
4503,4.38,4.43
4504,4.38,4.43
4505,4.38,4.43
4506,4.38,4.43
4508,4.38,4.43
4509,4.38,4.43
4510,4.38,4.43
4511,4.38,4.43
4512,4.38,4.43
4513,4.38,4.43
4514,4.38,4.43
4515,4.38,4.43
4517,4.38,4.43
4518,4.38,4.43
4519,4.38,4.43
4520,4.38,4.43
4521,4.38,4.43
4523,4.38,4.43
4524,4.38,4.43
4525,4.38,4.43
4527,4.38,4.43
4528,4.38,4.44
4529,4.38,4.44
4530,4.38,4.44
4531,4.38,4.44
4532,4.38,4.44
4533,4.38,4.44
4534,4.38,4.44
4536,4.38,4.44
4537,4.38,4.44
4538,4.38,4.44
4539,4.38,4.44
4540,4.38,4.44
4541,4.38,4.44
4542,4.38,4.44
4543,4.38,4.44
4545,4.38,4.44
4546,4.38,4.44
4547,4.38,4.44
4548,4.38,4.44
4549,4.38,4.44
4550,4.38,4.44
4551,4.38,4.44
4552,4.38,4.44
4554,4.38,4.44
4555,4.38,4.44
4556,4.38,4.44
4557,4.38,4.44
4558,4.39,4.44
4559,4.38,4.44
4560,4.39,4.44
4561,4.39,4.44
4563,4.38,4.44
4564,4.38,4.44
4566,4.39,4.44
4567,4.39,4.44
4568,4.38,4.44
4569,4.38,4.44
4570,4.38,4.44
4571,4.38,4.45
4573,4.38,4.45
4574,4.38,4.45
4575,4.38,4.45
4576,4.39,4.45
4577,4.38,4.45
4578,4.38,4.45
4579,4.38,4.46
4580,4.39,4.46
4582,4.39,4.46
4583,4.39,4.46
4584,4.39,4.47
4585,4.39,4.47
4586,4.39,4.47
4587,4.39,4.48
4588,4.39,4.48
4589,4.39,4.48
4591,4.39,4.49
4592,4.39,4.49
4593,4.39,4.49
4594,4.39,4.50
4595,4.39,4.50
4596,4.39,4.50
4597,4.39,4.51
4598,4.39,4.51
4600,4.39,4.51
4601,4.39,4.51
4602,4.39,4.52
4603,4.39,4.52
4604,4.39,4.52
4605,4.39,4.53
4606,4.39,4.53
4608,4.39,4.53
4610,4.39,4.54
4611,4.39,4.54
4612,4.39,4.54
4613,4.39,4.55
4614,4.39,4.55
4615,4.39,4.55
4616,4.39,4.55
4618,4.39,4.56
4619,4.39,4.56
4620,4.39,4.56
4621,4.39,4.57
4622,4.39,4.57
4623,4.39,4.57
4624,4.39,4.57
4625,4.39,4.57
4627,4.39,4.57
4628,4.39,4.58
4629,4.39,4.58
4630,4.39,4.58
4631,4.39,4.58
4632,4.39,4.58
4633,4.39,4.59
4634,4.39,4.59
4636,4.39,4.59
4637,4.39,4.59
4638,4.39,4.59
4639,4.39,4.60
4640,4.39,4.60
4641,4.39,4.60
4642,4.39,4.60
4643,4.39,4.60
4645,4.39,4.61
4646,4.39,4.61
4647,4.39,4.61
4648,4.39,4.61
4649,4.39,4.61
4651,4.39,4.62
4652,4.39,4.62
4653,4.39,4.62
4655,4.39,4.62
4656,4.39,4.62
4657,4.39,4.63
4658,4.39,4.63
4659,4.39,4.63
4660,4.39,4.63
4661,4.39,4.63
4662,4.39,4.64
4664,4.39,4.64
4665,4.39,4.64
4666,4.39,4.64
4667,4.39,4.64
4668,4.39,4.64
4669,4.39,4.65
4670,4.39,4.65
4671,4.39,4.65
4673,4.39,4.65
4674,4.39,4.65
4675,4.39,4.66
4676,4.39,4.66
4677,4.39,4.66
4678,4.39,4.66
4679,4.39,4.67
4680,4.39,4.67
4682,4.39,4.67
4683,4.39,4.68
4684,4.39,4.68
4685,4.39,4.68
4686,4.39,4.68
4687,4.39,4.69
4688,4.39,4.69
4689,4.39,4.69
4691,4.39,4.69
4692,4.39,4.70
4694,4.39,4.70
4695,4.40,4.70
4696,4.39,4.71
4697,4.39,4.71
4698,4.39,4.71
4699,4.39,4.71
4701,4.39,4.72
4702,4.39,4.72
4703,4.39,4.72
4704,4.39,4.72
4705,4.39,4.72
4706,4.39,4.73
4707,4.39,4.73
4708,4.39,4.73
4710,4.40,4.74
4711,4.39,4.74
4712,4.40,4.75
4713,4.39,4.75
4714,4.39,4.75
4715,4.40,4.76
4716,4.40,4.76
4717,4.40,4.77
4719,4.40,4.77
4720,4.40,4.78
4721,4.40,4.78
4722,4.40,4.78
4723,4.40,4.79
4724,4.40,4.79
4725,4.40,4.80
4726,4.40,4.81
4728,4.40,4.81
4729,4.40,4.82
4730,4.40,4.83
4731,4.40,4.83
4732,4.40,4.84
4733,4.40,4.84
4734,4.40,4.85
4736,4.40,4.85
4738,4.40,4.86
4739,4.40,4.86
4740,4.40,4.87
4741,4.40,4.87
4742,4.40,4.88
4743,4.40,4.88
4744,4.40,4.88
4745,4.40,4.89
4747,4.40,4.89
4748,4.40,4.89
4749,4.40,4.90
4750,4.40,4.90
4751,4.40,4.90
4752,4.40,4.90
4753,4.40,4.91
4754,4.40,4.91
4755,4.40,4.91
4757,4.40,4.91
4758,4.40,4.91
4759,4.40,4.92
4760,4.40,4.92
4761,4.40,4.92
4762,4.40,4.92
4763,4.40,4.92
4764,4.40,4.93
4766,4.40,4.93
4767,4.40,4.93
4768,4.40,4.93
4769,4.40,4.93
4770,4.40,4.93
4771,4.40,4.93
4772,4.39,4.93
4774,4.39,4.92
4775,4.39,4.92
4776,4.39,4.92
4777,4.39,4.91
4779,4.39,4.91
4780,4.39,4.91
4781,4.39,4.90
4782,4.39,4.90
4784,4.39,4.90
4785,4.40,4.90
4786,4.39,4.89
4787,4.40,4.89
4788,4.39,4.89
4789,4.40,4.88
4790,4.39,4.88
4791,4.40,4.87
4793,4.40,4.87
4794,4.40,4.86
4795,4.40,4.86
4796,4.40,4.85
4797,4.40,4.85
4798,4.40,4.84
4799,4.40,4.84
4800,4.40,4.83
4802,4.40,4.83
4803,4.40,4.82
4804,4.40,4.81
4805,4.40,4.81
4806,4.40,4.80
4807,4.40,4.80
4808,4.40,4.79
4809,4.40,4.79
4810,4.40,4.78
4812,4.40,4.78
4813,4.40,4.78
4814,4.40,4.77
4815,4.40,4.77
4816,4.39,4.76
4817,4.39,4.76
4818,4.39,4.75
4820,4.39,4.75
4822,4.39,4.74
4823,4.39,4.74
4824,4.39,4.73
4825,4.39,4.73
4826,4.39,4.73
4827,4.39,4.72
4828,4.39,4.72
4830,4.39,4.71
4831,4.39,4.71
4832,4.39,4.71
4833,4.39,4.71
4834,4.39,4.70
4835,4.39,4.70
4836,4.39,4.69
4837,4.39,4.69
4839,4.39,4.69
4840,4.39,4.69
4841,4.39,4.69
4842,4.39,4.68
4843,4.39,4.68
4844,4.39,4.68
4845,4.39,4.68
4846,4.39,4.68
4848,4.39,4.67
4849,4.39,4.67
4850,4.39,4.67
4851,4.39,4.67
4852,4.39,4.67
4853,4.39,4.67
4854,4.39,4.67
4855,4.39,4.67
4857,4.39,4.66
4858,4.39,4.66
4859,4.39,4.66
4860,4.39,4.66
4861,4.39,4.66
4862,4.39,4.66
4864,4.39,4.66
4865,4.39,4.66
4867,4.39,4.66
4868,4.40,4.66
4869,4.39,4.66
4870,4.40,4.66
4871,4.39,4.66
4872,4.40,4.66
4873,4.40,4.66
4874,4.40,4.66
4876,4.40,4.66
4877,4.40,4.66
4878,4.40,4.66
4879,4.40,4.67
4880,4.40,4.66
4881,4.40,4.67
4882,4.40,4.67
4883,4.40,4.67
4885,4.40,4.67
4886,4.40,4.67
4887,4.40,4.67
4888,4.40,4.67
4889,4.40,4.67
4890,4.40,4.67
4891,4.40,4.67
4892,4.41,4.67
4894,4.41,4.67
4895,4.41,4.67
4896,4.41,4.67
4897,4.41,4.67
4898,4.41,4.67
4899,4.41,4.67
4900,4.41,4.67
4901,4.41,4.67
4903,4.41,4.68
4904,4.41,4.68
4905,4.41,4.68
4907,4.41,4.68
4908,4.41,4.68
4909,4.41,4.68
4910,4.41,4.68
4911,4.41,4.68
4913,4.41,4.68
4914,4.41,4.68
4915,4.41,4.68
4916,4.41,4.68
4917,4.41,4.68
4918,4.41,4.68
4919,4.41,4.68
4920,4.41,4.69
4922,4.41,4.69
4923,4.41,4.69
4924,4.41,4.69
4925,4.41,4.69
4926,4.41,4.69
4927,4.41,4.69
4928,4.41,4.69
4929,4.41,4.69
4931,4.41,4.69
4932,4.41,4.69
4933,4.41,4.69
4934,4.41,4.69
4935,4.41,4.69
4936,4.41,4.69
4937,4.41,4.69
4938,4.41,4.69
4940,4.41,4.69
4941,4.41,4.69
4942,4.41,4.70
4943,4.41,4.69
4944,4.41,4.69
4945,4.41,4.69
4946,4.41,4.69
4947,4.41,4.70
4950,4.41,4.70
4951,4.41,4.70
4952,4.41,4.70
4953,4.41,4.70
4954,4.41,4.70
4955,4.41,4.70
4956,4.41,4.70
4957,4.41,4.70
4959,4.41,4.70
4960,4.41,4.70
4961,4.41,4.70
4962,4.41,4.70
4963,4.41,4.70
4964,4.41,4.70
4965,4.41,4.70
4966,4.41,4.71
4968,4.41,4.71
4969,4.41,4.70
4970,4.41,4.70
4971,4.41,4.71
4972,4.41,4.71
4973,4.41,4.71
4974,4.41,4.71
4976,4.41,4.71
4977,4.41,4.71
4978,4.41,4.71
4979,4.41,4.71
4980,4.41,4.71
4981,4.41,4.71
4982,4.41,4.71
4983,4.41,4.71
4985,4.41,4.71
4986,4.41,4.71
4987,4.41,4.71
4988,4.41,4.71
4989,4.41,4.71
4990,4.41,4.71
4992,4.41,4.71
4994,4.41,4.71
4995,4.41,4.70
4996,4.39,4.67
4997,4.36,4.64
4998,4.35,4.63
4999,4.34,4.62
5000,4.34,4.61
5001,4.32,4.58
5003,4.29,4.54
5004,4.25,4.50
5005,4.21,4.47
5006,4.18,4.45
5007,4.17,4.44
5008,4.16,4.44
5009,4.16,4.44
5010,4.16,4.44
5012,4.15,4.42
5013,4.13,4.39
5014,4.11,4.37
5015,4.10,4.37
5016,4.10,4.36
5017,4.10,4.34
5018,4.07,4.31
5019,4.04,4.27
5021,4.00,4.23
5022,3.98,4.22
5023,3.96,4.21
5024,3.96,4.21
5025,3.97,4.22
5026,3.98,4.23
5027,3.98,4.22
5028,3.98,4.20
5030,3.96,4.19
5031,3.96,4.19
5032,3.96,4.19
5033,3.97,4.17
5035,3.95,4.15
5036,3.93,4.12
5037,3.91,4.08
5038,3.88,4.06
5040,3.87,4.06
5041,3.87,4.07
5042,3.88,4.08
5043,3.89,4.09
5044,3.91,4.10
5045,3.91,4.09
5046,3.90,4.07
5047,3.90,4.07
5049,3.91,4.07
5050,3.91,4.06
5051,3.91,4.04
5052,3.89,4.02
5053,3.87,3.99
5054,3.84,3.96
5055,3.82,3.96
5056,3.82,3.96
5058,3.83,3.98
5059,3.85,4.00
5060,3.87,4.01
5061,3.88,4.01
5062,3.88,4.00
5063,3.87,3.99
5064,3.88,4.00
5065,3.89,4.00
5067,3.89,3.99
5068,3.88,3.97
5069,3.86,3.95
5070,3.84,3.92
5071,3.82,3.91
5072,3.81,3.91
5073,3.82,3.92
5074,3.83,3.95
5076,3.86,3.97
5078,3.88,3.98
5079,3.89,3.97
5080,3.88,3.96
5081,3.88,3.96
5082,3.89,3.97
5083,3.89,3.96
5084,3.89,3.95
5086,3.87,3.93
5087,3.85,3.91
5088,3.83,3.88
5089,3.81,3.88
5090,3.81,3.89
5091,3.83,3.91
5092,3.85,3.93
5093,3.87,3.95
5095,3.89,3.95
5096,3.88,3.94
5097,3.87,3.94
5098,3.88,3.95
5099,3.89,3.94
5100,3.89,3.93
5101,3.87,3.91
5102,3.85,3.89
5104,3.83,3.87
5105,3.81,3.85
5106,3.80,3.86
5107,3.81,3.88
5108,3.83,3.90
5109,3.85,3.92
5110,3.87,3.93
5112,3.88,3.92
5113,3.87,3.91
5114,3.86,3.92
5115,3.87,3.93
5116,3.88,3.92
5117,3.87,3.91
5118,3.85,3.89
5120,3.83,3.86
5122,3.81,3.84
5123,3.80,3.85
5124,3.80,3.86
5125,3.81,3.88
5126,3.84,3.91
5127,3.86,3.92
5128,3.87,3.92
5129,3.87,3.91
5131,3.86,3.91
5132,3.87,3.92
5133,3.88,3.92
5134,3.88,3.91
5135,3.87,3.90
5136,3.85,3.87
5137,3.83,3.85
5138,3.81,3.84
5140,3.81,3.86
5141,3.82,3.88
5142,3.84,3.90
5143,3.86,3.92
5144,3.88,3.93
5145,3.89,3.92
5146,3.88,3.91
5147,3.88,3.92
5149,3.89,3.93
5150,3.89,3.92
5151,3.88,3.90
5152,3.86,3.88
5153,3.84,3.86
5154,3.82,3.84
5155,3.81,3.85
5156,3.82,3.87
5158,3.83,3.89
5159,3.86,3.91
5160,3.88,3.93
5161,3.89,3.93
5163,3.89,3.92
5164,3.88,3.92
5165,3.89,3.93
5166,3.90,3.93
5168,3.90,3.92
5169,3.88,3.90
5170,3.86,3.88
5171,3.84,3.86
5172,3.82,3.85
5173,3.82,3.87
5174,3.84,3.89
5175,3.86,3.91
5177,3.88,3.94
5178,3.90,3.94
5179,3.90,3.93
5180,3.89,3.92
5181,3.90,3.94
5182,3.91,3.94
5183,3.91,3.93
5184,3.90,3.91
5186,3.88,3.89
5187,3.86,3.87
5188,3.83,3.86
5189,3.83,3.86
5190,3.83,3.88
5191,3.85,3.91
5192,3.87,3.93
5194,3.90,3.94
5195,3.91,3.94
5196,3.90,3.92
5197,3.89,3.93
5198,3.90,3.94
5199,3.91,3.93
5200,3.90,3.91
5201,3.88,3.90
5203,3.86,3.87
5204,3.84,3.85
5206,3.82,3.85
5207,3.82,3.87
5208,3.83,3.89
5209,3.85,3.91
5210,3.88,3.93
5211,3.90,3.93
5213,3.89,3.92
5214,3.89,3.92
5215,3.89,3.93
5216,3.90,3.93
5217,3.90,3.92
5218,3.89,3.90
5219,3.87,3.88
5220,3.84,3.86
5222,3.82,3.85
5223,3.82,3.86
5224,3.83,3.88
5225,3.85,3.90
5226,3.87,3.93
5227,3.89,3.94
5228,3.90,3.93
5229,3.89,3.92
5231,3.89,3.93
5232,3.91,3.94
5233,3.91,3.94
5234,3.90,3.92
5235,3.89,3.90
5236,3.86,3.88
5237,3.84,3.86
5238,3.83,3.86
5240,3.83,3.88
5241,3.85,3.90
5242,3.87,3.92
5243,3.89,3.94
5244,3.91,3.94
5245,3.90,3.93
5246,3.90,3.93
5248,3.90,3.95
5250,3.91,3.95
5251,3.91,3.93
5252,3.90,3.91
5253,3.88,3.89
5254,3.86,3.87
5255,3.84,3.86
5256,3.83,3.87
5257,3.84,3.89
5259,3.86,3.91
5260,3.89,3.94
5261,3.91,3.95
5262,3.91,3.94
5263,3.91,3.94
5264,3.91,3.95
5265,3.91,3.95
5266,3.92,3.95
5268,3.91,3.93
5269,3.90,3.91
5270,3.87,3.89
5271,3.85,3.87
5272,3.84,3.87
5273,3.84,3.89
5274,3.86,3.91
5275,3.88,3.93
5277,3.91,3.95
5278,3.91,3.95
5279,3.91,3.94
5280,3.91,3.94
5281,3.91,3.96
5282,3.92,3.95
5283,3.92,3.94
5284,3.91,3.92
5286,3.89,3.90
5287,3.86,3.88
5288,3.84,3.87
5289,3.84,3.88
5291,3.85,3.90
5292,3.87,3.92
5293,3.89,3.94
5294,3.91,3.95
5296,3.91,3.94
5297,3.90,3.93
5298,3.90,3.94
5299,3.91,3.95
5300,3.91,3.93
5301,3.90,3.92
5302,3.88,3.90
5303,3.86,3.88
5305,3.84,3.86
5306,3.82,3.86
5307,3.83,3.88
5308,3.84,3.90
5309,3.86,3.92
5310,3.89,3.93
5311,3.90,3.93
5312,3.89,3.92
5314,3.88,3.92
5315,3.90,3.93
5316,3.90,3.93
5317,3.90,3.91
5318,3.88,3.90
5319,3.86,3.88
5320,3.84,3.85
5321,3.82,3.85
5323,3.82,3.86
5324,3.83,3.88
5325,3.85,3.91
5326,3.87,3.92
5327,3.89,3.93
5328,3.89,3.92
5329,3.88,3.91
5330,3.88,3.92
5332,3.89,3.93
5334,3.90,3.91
5335,3.89,3.90
5336,3.87,3.88
5337,3.84,3.86
5338,3.82,3.84
5339,3.81,3.85
5340,3.82,3.87
5342,3.83,3.89
5343,3.86,3.91
5344,3.88,3.92
5345,3.89,3.92
5346,3.88,3.91
5347,3.88,3.91
5348,3.89,3.92
5349,3.89,3.91
5351,3.88,3.90
5352,3.87,3.88
5353,3.85,3.86
5354,3.82,3.84
5355,3.81,3.84
5356,3.81,3.85
5357,3.82,3.87
5359,3.84,3.90
5360,3.87,3.91
5361,3.88,3.92
5362,3.88,3.91
5363,3.87,3.91
5364,3.88,3.91
5365,3.89,3.91
5366,3.89,3.91
5368,3.88,3.89
5369,3.86,3.87
5370,3.83,3.84
5371,3.81,3.83
5372,3.81,3.84
5373,3.82,3.86
5374,3.83,3.89
5376,3.86,3.91
5378,3.88,3.92
5379,3.89,3.91
5380,3.88,3.91
5381,3.87,3.91
5382,3.89,3.92
5383,3.89,3.91
5384,3.88,3.90
5385,3.86,3.88
5387,3.84,3.85
5388,3.82,3.83
5389,3.80,3.84
5390,3.81,3.85
5391,3.82,3.87
5392,3.85,3.90
5393,3.87,3.91
5394,3.88,3.91
5396,3.88,3.90
5397,3.87,3.90
5398,3.88,3.91
5399,3.88,3.91
5400,3.88,3.90
5401,3.87,3.88
5402,3.85,3.85
5403,3.82,3.83
5405,3.80,3.82
5406,3.80,3.83
5407,3.81,3.85
5408,3.83,3.88
5409,3.85,3.91
5410,3.88,3.91
5411,3.88,3.90
5413,3.87,3.89
5414,3.87,3.90
5415,3.88,3.91
5416,3.89,3.90
5417,3.87,3.88
5419,3.86,3.86
5420,3.84,3.84
5421,3.81,3.83
5422,3.80,3.83
5424,3.81,3.85
5425,3.82,3.87
5426,3.85,3.90
5427,3.87,3.91
5428,3.88,3.91
5429,3.88,3.90
5430,3.87,3.90
5432,3.88,3.91
5433,3.89,3.91
5434,3.88,3.89
5435,3.87,3.87
5436,3.84,3.85
5437,3.82,3.83
5438,3.80,3.83
5439,3.80,3.84
5441,3.81,3.86
5442,3.83,3.89
5443,3.86,3.91
5444,3.88,3.91
5445,3.88,3.91
5446,3.87,3.90
5447,3.88,3.91
5448,3.89,3.91
5450,3.88,3.90
5451,3.87,3.88
5452,3.85,3.86
5453,3.83,3.83
5454,3.81,3.82
5455,3.80,3.83
5456,3.80,3.85
5457,3.82,3.87
5459,3.85,3.90
5460,3.88,3.91
5462,3.88,3.91
5463,3.88,3.90
5464,3.87,3.91
5465,3.88,3.91
5466,3.89,3.91
5468,3.88,3.90
5469,3.87,3.88
5470,3.85,3.85
5471,3.82,3.83
5472,3.81,3.83
5473,3.81,3.85
5474,3.83,3.87
5475,3.85,3.90
5477,3.88,3.92
5478,3.89,3.92
5479,3.89,3.91
5480,3.89,3.91
5481,3.89,3.91
5482,3.89,3.91
5483,3.89,3.90
5484,3.87,3.87
5486,3.85,3.85
5487,3.83,3.83
5488,3.80,3.82
5489,3.80,3.83
5490,3.81,3.85
5491,3.83,3.87
5492,3.85,3.90
5493,3.88,3.91
5495,3.88,3.90
5496,3.87,3.89
5497,3.87,3.89
5498,3.88,3.89
5499,3.87,3.88
5500,3.86,3.87
5501,3.84,3.85
5502,3.82,3.82
5505,3.80,3.80
5506,3.78,3.81
5507,3.79,3.82
5508,3.80,3.85
5509,3.83,3.88
5510,3.86,3.89
5511,3.87,3.89
5512,3.86,3.88
5514,3.86,3.88
5515,3.86,3.89
5516,3.87,3.89
5517,3.87,3.87
5518,3.85,3.85
5519,3.83,3.83
5520,3.81,3.81
5522,3.79,3.81
5523,3.79,3.82
5524,3.80,3.84
5525,3.83,3.87
5526,3.86,3.90
5527,3.88,3.90
5528,3.88,3.90
5529,3.88,3.89
5531,3.88,3.90
5532,3.90,3.91
5533,3.90,3.91
5534,3.89,3.89
5535,3.87,3.87
5536,3.85,3.84
5537,3.83,3.84
5538,3.83,3.85
5540,3.84,3.87
5541,3.86,3.90
5542,3.89,3.92
5543,3.91,3.94
5544,3.92,3.94
5545,3.92,3.93
5547,3.92,3.94
5548,3.93,3.95
5550,3.94,3.95
5551,3.94,3.93
5552,3.92,3.91
5553,3.91,3.89
5554,3.88,3.87
5555,3.87,3.88
5556,3.87,3.89
5557,3.88,3.91
5559,3.91,3.94
5560,3.93,3.97
5561,3.95,3.97
5562,3.95,3.96
5563,3.95,3.97
5564,3.96,3.99
5565,3.98,4.01
5566,4.00,4.02
5568,4.01,4.02
5569,4.00,4.00
5570,3.98,3.98
5571,3.97,3.97
5572,3.97,3.99
5573,3.98,4.00
5574,4.00,4.03
5575,4.02,4.05
5577,4.04,4.08
5578,4.07,4.11
5579,4.09,4.13
5580,4.12,4.16
5581,4.14,4.19
5582,4.17,4.21
5583,4.20,4.24
5584,4.22,4.27
5586,4.25,4.29
5587,4.27,4.32
5588,4.30,4.34
5590,4.32,4.36
5591,4.34,4.38
5592,4.35,4.40
5593,4.37,4.43
5594,4.39,4.45
5596,4.41,4.46
5597,4.42,4.48
5598,4.43,4.50
5599,4.45,4.52
5600,4.46,4.53
5601,4.47,4.55
5602,4.48,4.56
5603,4.49,4.57
5605,4.50,4.58
5606,4.50,4.59
5607,4.51,4.60
5608,4.51,4.61
5609,4.52,4.62
5610,4.52,4.62
5611,4.52,4.63
5612,4.53,4.64
5614,4.53,4.64
5615,4.53,4.65
5616,4.53,4.65
5617,4.53,4.66
5618,4.53,4.66
5619,4.52,4.67
5620,4.52,4.67
5621,4.52,4.67
5623,4.52,4.68
5624,4.52,4.68
5625,4.51,4.68
5626,4.51,4.68
5627,4.51,4.69
5628,4.50,4.69
5629,4.50,4.69
5630,4.50,4.69
5633,4.49,4.69
5634,4.49,4.69
5635,4.49,4.70
5636,4.48,4.70
5637,4.48,4.70
5638,4.48,4.70
5639,4.47,4.70
5640,4.47,4.70
5642,4.47,4.70
5643,4.46,4.70
5644,4.46,4.70
5645,4.46,4.70
5646,4.46,4.71
5647,4.45,4.71
5648,4.45,4.71
5649,4.45,4.71
5651,4.45,4.71
5652,4.44,4.71
5653,4.44,4.72
5654,4.44,4.72
5655,4.44,4.72
5656,4.44,4.72
5657,4.43,4.72
5658,4.43,4.72
5660,4.43,4.72
5661,4.43,4.72
5662,4.43,4.73
5663,4.43,4.72
5664,4.43,4.73
5665,4.43,4.73
5666,4.43,4.73
5668,4.43,4.73
5669,4.43,4.73
5670,4.43,4.73
5671,4.42,4.73
5672,4.42,4.73
5673,4.42,4.74
5675,4.42,4.74
5676,4.42,4.74
5678,4.42,4.74
5679,4.42,4.74
5680,4.42,4.74
5681,4.42,4.74
5682,4.42,4.75
5683,4.42,4.75
5684,4.42,4.75
5686,4.42,4.75
5687,4.42,4.75
5688,4.42,4.75
5689,4.42,4.75
5690,4.42,4.75
5691,4.42,4.75
5692,4.42,4.75
5693,4.42,4.76
5695,4.42,4.76
5696,4.42,4.76
5697,4.42,4.76
5698,4.42,4.76
5699,4.43,4.76
5700,4.42,4.76
5701,4.42,4.76
5702,4.42,4.77
5704,4.42,4.77
5705,4.42,4.77
5706,4.42,4.77
5707,4.42,4.77
5708,4.42,4.77
5709,4.42,4.77
5710,4.42,4.77
5712,4.42,4.77
5713,4.42,4.77
5714,4.42,4.77
5715,4.42,4.78
5716,4.42,4.78
5718,4.42,4.78
5719,4.42,4.78
5720,4.42,4.78
5722,4.42,4.78
5723,4.42,4.78
5724,4.42,4.78
5725,4.42,4.78
5726,4.42,4.78
5727,4.42,4.78
5728,4.42,4.79
5729,4.42,4.79
5731,4.42,4.79
5732,4.42,4.79
5733,4.42,4.79
5734,4.42,4.79
5735,4.42,4.79
5736,4.42,4.79
5737,4.42,4.79
5738,4.42,4.80
5740,4.42,4.80
5741,4.42,4.80
5742,4.42,4.80
5743,4.42,4.80
5744,4.42,4.80
5745,4.41,4.81
5746,4.42,4.81
5747,4.41,4.81
5749,4.42,4.81
5750,4.41,4.81
5751,4.41,4.81
5752,4.41,4.82
5753,4.41,4.82
5754,4.41,4.82
5755,4.41,4.82
5757,4.41,4.82
5758,4.41,4.83
5760,4.41,4.83
5761,4.41,4.83
5762,4.41,4.83
5763,4.41,4.84
5764,4.41,4.84
5765,4.41,4.84
5767,4.41,4.85
5768,4.41,4.85
5769,4.41,4.85
5770,4.41,4.86
5771,4.41,4.86
5772,4.41,4.87
5773,4.41,4.87
5774,4.41,4.87
5776,4.41,4.88
5777,4.42,4.88
5778,4.42,4.89
5779,4.42,4.89
5780,4.42,4.89
5781,4.42,4.90
5782,4.42,4.90
5783,4.41,4.90
5785,4.41,4.91
5786,4.41,4.91
5787,4.41,4.91
5788,4.41,4.91
5789,4.41,4.91
5790,4.41,4.92
5791,4.41,4.92
5792,4.41,4.92
5794,4.41,4.92
5795,4.41,4.93
5796,4.41,4.93
5797,4.41,4.93
5798,4.41,4.93
5799,4.41,4.93
5800,4.41,4.93
5801,4.41,4.93
5804,4.41,4.94
5805,4.41,4.94
5806,4.41,4.94
5807,4.41,4.94
5808,4.41,4.94
5809,4.41,4.94
5810,4.41,4.94
5812,4.41,4.94
5813,4.41,4.94
5814,4.41,4.95
5815,4.41,4.95
5816,4.41,4.95
5817,4.41,4.95
5818,4.41,4.95
5819,4.41,4.95
5821,4.41,4.95
5822,4.41,4.95
5823,4.41,4.95
5824,4.41,4.95
5825,4.41,4.95
5826,4.41,4.95
5827,4.40,4.95
5828,4.41,4.95
5830,4.41,4.95
5831,4.41,4.96
5832,4.41,4.96
5833,4.40,4.96
5834,4.40,4.96
5835,4.40,4.96
5836,4.40,4.96
5838,4.40,4.96
5839,4.40,4.96
5840,4.40,4.96
5841,4.40,4.96
5842,4.41,4.96
5843,4.40,4.96
5844,4.41,4.96
5846,4.40,4.96
5848,4.40,4.96
5849,4.41,4.96
5850,4.41,4.96
5851,4.40,4.97
5852,4.40,4.96
5853,4.40,4.96
5854,4.40,4.96
5855,4.40,4.96
5857,4.40,4.96
5858,4.40,4.96
5859,4.40,4.96
5860,4.40,4.96
5861,4.40,4.96
5862,4.40,4.97
5863,4.40,4.97
5864,4.40,4.96
5865,4.40,4.96
5867,4.40,4.96
5868,4.40,4.97
5869,4.40,4.97
5870,4.40,4.97
5871,4.40,4.97
5872,4.40,4.97
5873,4.40,4.97
5875,4.40,4.97
5876,4.40,4.97
5877,4.40,4.97
5878,4.40,4.97
5879,4.40,4.97
5880,4.40,4.97
5881,4.40,4.97
5882,4.40,4.97
5884,4.40,4.97
5885,4.40,4.97
5886,4.40,4.97
5888,4.41,4.97
5889,4.40,4.97
5890,4.40,4.97
5891,4.40,4.97
5893,4.40,4.97
5894,4.40,4.97
5895,4.40,4.97
5896,4.40,4.97
5897,4.40,4.97
5898,4.40,4.97
5899,4.40,4.97
5900,4.40,4.97
5902,4.40,4.97
5903,4.40,4.97
5904,4.40,4.97
5905,4.40,4.97
5906,4.40,4.97
5907,4.40,4.97
5908,4.40,4.97
5909,4.40,4.97
5911,4.40,4.97
5912,4.40,4.97
5913,4.40,4.97
5914,4.40,4.97
5915,4.40,4.97
5916,4.40,4.97
5917,4.40,4.97
5919,4.40,4.97
5920,4.40,4.97
5921,4.40,4.97
5922,4.40,4.97
5923,4.40,4.97
5924,4.40,4.97
5925,4.40,4.97
5926,4.40,4.97
5928,4.40,4.97
5929,4.40,4.97
5931,4.40,4.97
5932,4.40,4.97
5933,4.40,4.97
5934,4.40,4.97
5935,4.40,4.97
5936,4.40,4.97
5937,4.40,4.97
5939,4.40,4.97
5940,4.40,4.97
5941,4.40,4.97
5942,4.40,4.97
5943,4.40,4.97
5944,4.40,4.97
5945,4.40,4.97
5946,4.40,4.97
5948,4.40,4.97
5949,4.40,4.97
5950,4.40,4.97
5951,4.40,4.97
5952,4.40,4.97
5953,4.40,4.97
5954,4.40,4.97
5955,4.40,4.97
5957,4.40,4.97
5958,4.40,4.97
5959,4.40,4.97
5960,4.40,4.97
5961,4.40,4.97
5962,4.40,4.97
5963,4.40,4.97
5964,4.40,4.97
5966,4.40,4.97
5967,4.40,4.97
5968,4.40,4.97
5969,4.40,4.97
5970,4.40,4.97
5971,4.40,4.96
5972,4.40,4.96
5974,4.40,4.95
5976,4.40,4.95
5977,4.40,4.95
5978,4.40,4.94
5979,4.40,4.94
5980,4.40,4.94
5981,4.40,4.93
5982,4.40,4.92
5983,4.40,4.92
5985,4.40,4.91
5986,4.40,4.91
5987,4.40,4.90
5988,4.40,4.89
5989,4.40,4.89
5990,4.40,4.88
5991,4.40,4.87
5992,4.40,4.86
5994,4.40,4.86
5995,4.40,4.85
5996,4.40,4.84
5997,4.40,4.84
5998,4.40,4.83
5999,4.40,4.82
6000,4.40,4.81
6001,4.40,4.80
6003,4.39,4.80
6004,4.40,4.79
6005,4.39,4.78
6006,4.40,4.78
6007,4.39,4.77
6008,4.39,4.76
6009,4.40,4.75
6010,4.39,4.75
6012,4.39,4.74
6013,4.39,4.73
6014,4.39,4.72
6016,4.39,4.71
6017,4.39,4.70
6018,4.39,4.70
6019,4.39,4.69
6020,4.39,4.68
6022,4.39,4.68
6023,4.39,4.67
6024,4.38,4.66
6025,4.39,4.65
6026,4.38,4.64
6027,4.38,4.64
6028,4.38,4.63
6029,4.38,4.62
6031,4.38,4.62
6032,4.38,4.61
6033,4.38,4.60
6034,4.38,4.60
6035,4.38,4.59
6036,4.38,4.59
6037,4.38,4.58
6038,4.38,4.57
6040,4.38,4.57
6041,4.38,4.57
6042,4.38,4.56
6043,4.38,4.55
6044,4.38,4.55
6045,4.38,4.54
6046,4.38,4.54
6047,4.38,4.53
6049,4.38,4.53
6050,4.38,4.52
6051,4.38,4.52
6052,4.38,4.51
6053,4.38,4.51
6054,4.38,4.50
6055,4.38,4.50
6057,4.38,4.49
6059,4.38,4.49
6060,4.38,4.48
6061,4.38,4.48
6062,4.38,4.48
6063,4.38,4.47
6064,4.38,4.47
6065,4.38,4.46
6067,4.38,4.46
6068,4.38,4.46
6069,4.38,4.45
6070,4.38,4.45
6071,4.38,4.45
6072,4.38,4.44
6073,4.38,4.44
6074,4.38,4.44
6076,4.38,4.43
6077,4.38,4.43
6078,4.38,4.43
6079,4.38,4.43
6080,4.38,4.42
6081,4.38,4.42
6082,4.38,4.42
6083,4.38,4.42
6085,4.38,4.41
6086,4.38,4.41
6087,4.38,4.41
6088,4.38,4.41
6089,4.38,4.41
6090,4.38,4.41
6091,4.38,4.40
6092,4.38,4.40
6094,4.38,4.40
6095,4.38,4.40
6096,4.38,4.40
6097,4.38,4.40
6098,4.38,4.40
6099,4.38,4.39
6100,4.38,4.39
6102,4.38,4.39
6104,4.38,4.39
6105,4.38,4.39
6106,4.38,4.39
6107,4.38,4.39
6108,4.38,4.39
6109,4.38,4.39
6110,4.38,4.39
6111,4.38,4.39
6113,4.38,4.39
6114,4.38,4.38
6115,4.38,4.39
6116,4.38,4.39
6117,4.38,4.39
6118,4.38,4.39
6119,4.38,4.38
6120,4.38,4.38
6122,4.38,4.38
6123,4.38,4.38
6124,4.38,4.38
6125,4.38,4.38
6126,4.38,4.38
6127,4.38,4.38
6128,4.38,4.39
6129,4.38,4.39
6131,4.39,4.39
6132,4.38,4.39
6133,4.39,4.39
6134,4.38,4.39
6135,4.38,4.39
6136,4.39,4.39
6137,4.38,4.39
6138,4.39,4.39
6140,4.39,4.39
6141,4.39,4.39
6142,4.39,4.39
6144,4.39,4.39
6145,4.39,4.39
6146,4.39,4.39
6147,4.39,4.39
6148,4.38,4.39
6150,4.39,4.39
6151,4.39,4.39
6152,4.39,4.40
6153,4.39,4.39
6154,4.39,4.40
6155,4.39,4.40
6156,4.39,4.40
6157,4.39,4.40
6159,4.39,4.40
6160,4.39,4.40
6161,4.39,4.40
6162,4.39,4.40
6163,4.39,4.40
6164,4.39,4.40
6165,4.39,4.40
6166,4.39,4.41
6168,4.39,4.41
6169,4.39,4.41
6170,4.39,4.41
6171,4.39,4.41
6172,4.39,4.41
6173,4.39,4.41
6174,4.39,4.41
6175,4.39,4.41
6177,4.39,4.41
6178,4.39,4.41
6179,4.39,4.41
6180,4.39,4.41
6181,4.39,4.41
6182,4.39,4.41
6183,4.39,4.41
6184,4.39,4.42
6187,4.39,4.41
6188,4.39,4.42
6189,4.39,4.42
6190,4.39,4.42
6191,4.39,4.42
6192,4.39,4.42
6193,4.39,4.42
6194,4.39,4.42
6196,4.39,4.42
6197,4.39,4.42
6198,4.39,4.42
6199,4.39,4.42
6200,4.39,4.43
6201,4.39,4.42
6202,4.39,4.43
6203,4.39,4.43
6205,4.39,4.43
6206,4.39,4.43
6207,4.39,4.43
6208,4.39,4.43
6209,4.39,4.43
6210,4.39,4.44
6211,4.39,4.44
6212,4.39,4.44
6214,4.39,4.44
6215,4.39,4.45
6216,4.39,4.45
6217,4.39,4.45
6218,4.39,4.45
6219,4.39,4.45
6220,4.39,4.45
6221,4.39,4.46
6223,4.39,4.46
6224,4.39,4.46
6225,4.39,4.46
6226,4.39,4.46
6227,4.39,4.47
6228,4.39,4.47
6230,4.39,4.47
6231,4.39,4.47
6233,4.39,4.48
6234,4.39,4.48
6235,4.39,4.48
6236,4.39,4.49
6237,4.39,4.49
6238,4.39,4.49
6239,4.39,4.49
6240,4.39,4.50
6242,4.40,4.50
6243,4.39,4.50
6244,4.40,4.50
6245,4.39,4.51
6246,4.39,4.51
6247,4.39,4.51
6248,4.39,4.52
6249,4.39,4.52
6251,4.39,4.52
6252,4.39,4.52
6253,4.39,4.53
6254,4.39,4.53
6255,4.39,4.53
6256,4.39,4.53
6257,4.39,4.54
6258,4.39,4.54
6260,4.39,4.54
6261,4.39,4.54
6262,4.39,4.55
6263,4.39,4.55
6264,4.39,4.55
6265,4.39,4.55
6266,4.39,4.55
6268,4.39,4.56
6269,4.39,4.56
6270,4.39,4.56
6272,4.39,4.56
6273,4.39,4.57
6274,4.39,4.57
6275,4.39,4.57
6276,4.39,4.57
6278,4.39,4.57
6279,4.39,4.57
6280,4.40,4.57
6281,4.39,4.58
6282,4.39,4.58
6283,4.39,4.58
6284,4.40,4.58
6285,4.39,4.58
6287,4.40,4.58
6288,4.39,4.59
6289,4.40,4.59
6290,4.39,4.59
6291,4.40,4.59
6292,4.39,4.59
6293,4.40,4.60
6294,4.39,4.60
6296,4.40,4.60
6297,4.39,4.60
6298,4.40,4.60
6299,4.39,4.61
6300,4.39,4.61
6301,4.39,4.61
6302,4.39,4.61
6303,4.40,4.61
6305,4.40,4.61
6306,4.40,4.61
6307,4.40,4.62
6308,4.40,4.62
6309,4.40,4.62
6310,4.40,4.62
6311,4.40,4.62
6312,4.40,4.63
6315,4.40,4.63
6316,4.40,4.63
6317,4.40,4.63
6318,4.40,4.64
6319,4.40,4.64
6320,4.40,4.64
6321,4.40,4.64
6322,4.40,4.65
6324,4.40,4.65
6325,4.40,4.65
6326,4.40,4.66
6327,4.40,4.66
6328,4.40,4.66
6329,4.40,4.67
6330,4.40,4.67
6331,4.40,4.67
6333,4.40,4.67
6334,4.40,4.68
6335,4.40,4.68
6336,4.40,4.68
6337,4.40,4.68
6338,4.40,4.68
6339,4.40,4.69
6340,4.40,4.69
6342,4.40,4.69
6343,4.40,4.70
6344,4.40,4.70
6345,4.40,4.70
6346,4.40,4.71
6347,4.40,4.71
6348,4.40,4.72
6349,4.40,4.72
6351,4.40,4.72
6352,4.40,4.73
6353,4.40,4.73
6354,4.40,4.74
6355,4.40,4.74
6356,4.40,4.74
6358,4.40,4.75
6359,4.40,4.76
6361,4.40,4.76
6362,4.40,4.77
6363,4.40,4.77
6364,4.40,4.78
6365,4.40,4.78
6366,4.40,4.79
6367,4.40,4.80
6368,4.41,4.81
6370,4.41,4.82
6371,4.41,4.82
6372,4.41,4.83
6373,4.41,4.83
6374,4.41,4.84
6375,4.41,4.84
6376,4.41,4.85
6377,4.41,4.86
6379,4.41,4.86
6380,4.41,4.86
6381,4.41,4.87
6382,4.41,4.87
6383,4.41,4.88
6384,4.41,4.88
6385,4.41,4.88
6386,4.41,4.89
6388,4.41,4.89
6389,4.41,4.89
6390,4.40,4.89
6391,4.41,4.90
6392,4.41,4.90
6393,4.41,4.90
6394,4.41,4.91
6395,4.41,4.91
6397,4.40,4.91
6398,4.40,4.91
6400,4.40,4.91
6401,4.40,4.92
6402,4.40,4.92
6403,4.40,4.92
6404,4.40,4.92
6405,4.40,4.92
6407,4.40,4.92
6408,4.40,4.92
6409,4.40,4.92
6410,4.40,4.92
6411,4.40,4.92
6412,4.40,4.91
6413,4.40,4.91
6414,4.40,4.91
6416,4.40,4.91
6417,4.40,4.90
6418,4.40,4.89
6419,4.40,4.89
6420,4.40,4.89
6421,4.40,4.89
6422,4.40,4.88
6423,4.40,4.88
6425,4.40,4.87
6426,4.40,4.87
6427,4.40,4.87
6428,4.40,4.86
6429,4.40,4.86
6430,4.40,4.85
6431,4.40,4.85
6432,4.40,4.84
6433,4.40,4.84
6435,4.40,4.83
6436,4.40,4.82
6437,4.40,4.82
6438,4.40,4.82
6439,4.40,4.81
6440,4.40,4.80
6441,4.40,4.80
6443,4.40,4.79
6445,4.40,4.79
6446,4.40,4.78
6447,4.40,4.78
6448,4.40,4.77
6449,4.40,4.77
6450,4.40,4.76
6451,4.40,4.76
6452,4.40,4.75
6454,4.40,4.75
6455,4.40,4.74
6456,4.40,4.74
6457,4.40,4.73
6458,4.40,4.72
6459,4.40,4.72
6460,4.40,4.72
6461,4.40,4.71
6463,4.40,4.71
6464,4.40,4.70
6465,4.40,4.70
6466,4.40,4.70
6467,4.40,4.69
6468,4.39,4.69
6469,4.40,4.69
6470,4.39,4.68
6472,4.39,4.68
6473,4.39,4.68
6474,4.39,4.67
6475,4.40,4.67
6476,4.39,4.67
6477,4.40,4.67
6478,4.39,4.67
6479,4.39,4.66
6481,4.39,4.66
6482,4.39,4.66
6483,4.39,4.66
6484,4.39,4.65
6486,4.39,4.65
6487,4.39,4.65
6488,4.39,4.65
6489,4.39,4.65
6491,4.39,4.65
6492,4.40,4.65
6493,4.39,4.65
6494,4.40,4.64
6495,4.39,4.64
6496,4.39,4.64
6497,4.40,4.64
6498,4.40,4.64
6500,4.40,4.64
6501,4.40,4.64
6502,4.40,4.64
6503,4.40,4.64
6504,4.40,4.64
6505,4.40,4.64
6506,4.40,4.64
6507,4.40,4.64
6508,4.40,4.64
6510,4.40,4.64
6511,4.40,4.64
6512,4.40,4.64
6513,4.40,4.64
6514,4.40,4.64
6515,4.40,4.64
6516,4.40,4.64
6517,4.40,4.64
6519,4.40,4.64
6520,4.40,4.64
6521,4.40,4.64
6522,4.40,4.65
6523,4.40,4.65
6524,4.41,4.65
6525,4.41,4.65
6526,4.41,4.65
6528,4.41,4.65
6530,4.41,4.65
6531,4.41,4.65
6532,4.41,4.65
6533,4.41,4.65
6534,4.41,4.66
6535,4.41,4.66
6536,4.41,4.66
6538,4.41,4.66
6539,4.41,4.66
6540,4.41,4.66
6541,4.41,4.66
6542,4.41,4.66
6543,4.41,4.66
6544,4.41,4.66
6545,4.41,4.66
6547,4.41,4.66
6548,4.41,4.66
6549,4.41,4.67
6550,4.41,4.67
6551,4.41,4.67
6552,4.41,4.67
6553,4.41,4.67
6554,4.41,4.67
6556,4.41,4.67
6557,4.41,4.67
6558,4.41,4.67
6559,4.41,4.67
6560,4.41,4.67
6561,4.41,4.67
6562,4.41,4.67
6563,4.41,4.67
6565,4.41,4.67
6566,4.41,4.68
6567,4.41,4.68
6568,4.41,4.68
6569,4.41,4.68
6571,4.41,4.68
6572,4.41,4.68
6573,4.41,4.68
6575,4.41,4.68
6576,4.41,4.68
6577,4.41,4.68
6578,4.41,4.68
6579,4.41,4.68
6580,4.41,4.68
6581,4.41,4.68
6582,4.41,4.68
6584,4.41,4.68
6585,4.41,4.69
6586,4.41,4.69
6587,4.41,4.69
6588,4.41,4.69
6589,4.41,4.69
6590,4.41,4.69
6591,4.41,4.69
6593,4.41,4.69
6594,4.41,4.69
6595,4.41,4.69
6596,4.41,4.69
6597,4.41,4.69
6598,4.41,4.69
6599,4.41,4.69
6601,4.41,4.69
6602,4.41,4.69
6603,4.41,4.69
6604,4.41,4.69
6605,4.41,4.70
6606,4.41,4.70
6607,4.41,4.70
6608,4.41,4.70
6610,4.41,4.70
6611,4.41,4.70
6612,4.41,4.70
6614,4.41,4.70
6615,4.41,4.70
6616,4.41,4.70
6617,4.41,4.70
6618,4.41,4.70
6620,4.42,4.70
6621,4.42,4.70
6622,4.42,4.70
6623,4.42,4.70
6624,4.42,4.70
6625,4.42,4.70
6626,4.42,4.70
6627,4.41,4.70
6629,4.42,4.70
6630,4.42,4.70
6631,4.41,4.70
6632,4.41,4.69
6633,4.40,4.66
6634,4.38,4.62
6635,4.34,4.58
6636,4.30,4.55
6638,4.27,4.53
6639,4.25,4.52
6640,4.24,4.51
6641,4.23,4.51
6642,4.23,4.51
6643,4.22,4.48
6644,4.20,4.45
6645,4.17,4.43
6647,4.15,4.42
6648,4.15,4.42
6649,4.14,4.39
6650,4.12,4.36
6651,4.08,4.32
6652,4.04,4.28
6653,4.01,4.25
6654,3.99,4.25
6657,3.99,4.25
6658,3.99,4.25
6659,3.99,4.26
6660,4.00,4.25
6661,3.99,4.23
6662,3.97,4.21
6663,3.96,4.20
6664,3.96,4.21
6666,3.97,4.20
6667,3.96,4.17
6668,3.94,4.14
6669,3.91,4.11
6670,3.89,4.09
6671,3.87,4.08
6672,3.87,4.08
6673,3.88,4.10
6675,3.90,4.11
6676,3.91,4.12
6677,3.91,4.10
6678,3.91,4.08
6679,3.90,4.08
6680,3.91,4.09
6681,3.91,4.08
6682,3.91,4.06
6684,3.89,4.03
6685,3.87,4.00
6686,3.84,3.97
6687,3.82,3.96
6688,3.82,3.97
6689,3.83,3.98
6690,3.84,4.00
6691,3.87,4.01
6693,3.88,4.01
6694,3.88,4.00
6695,3.87,3.99
6696,3.87,4.00
6697,3.88,4.00
6699,3.88,3.99
6700,3.88,3.97
6701,3.86,3.94
6703,3.84,3.91
6704,3.81,3.90
6705,3.81,3.90
6706,3.81,3.91
6707,3.82,3.93
6708,3.84,3.95
6709,3.87,3.97
6710,3.88,3.96
6712,3.87,3.94
6713,3.86,3.94
6714,3.87,3.95
6715,3.88,3.94
6716,3.87,3.93
6717,3.86,3.91
6718,3.84,3.89
6719,3.81,3.86
6721,3.79,3.85
6722,3.79,3.86
6723,3.80,3.88
6724,3.82,3.90
6725,3.85,3.92
6726,3.86,3.92
6727,3.86,3.91
6728,3.85,3.91
6730,3.85,3.91
6731,3.86,3.91
6732,3.86,3.90
6733,3.85,3.88
6734,3.83,3.86
6735,3.81,3.83
6736,3.78,3.82
6737,3.77,3.83
6739,3.78,3.84
6740,3.80,3.87
6742,3.82,3.89
6743,3.85,3.90
6744,3.86,3.90
6745,3.85,3.89
6746,3.84,3.89
6747,3.85,3.90
6749,3.86,3.89
6750,3.85,3.88
6751,3.84,3.86
6752,3.82,3.83
6753,3.79,3.81
6754,3.78,3.81
6755,3.78,3.82
6756,3.79,3.85
6758,3.81,3.87
6759,3.84,3.90
6760,3.86,3.90
6761,3.86,3.89
6762,3.85,3.88
6763,3.85,3.89
6764,3.86,3.89
6765,3.86,3.88
6767,3.85,3.86
6768,3.83,3.84
6769,3.81,3.82
6770,3.79,3.81
6771,3.78,3.82
6772,3.79,3.84
6773,3.81,3.86
6774,3.83,3.89
6776,3.86,3.90
6777,3.87,3.90
6778,3.86,3.88
6779,3.85,3.89
6780,3.86,3.89
6781,3.87,3.89
6782,3.86,3.87
6785,3.84,3.85
6786,3.82,3.83
6787,3.80,3.81
6788,3.78,3.81
6789,3.78,3.82
6790,3.80,3.85
6791,3.82,3.88
6792,3.85,3.90
6794,3.86,3.90
6795,3.86,3.89
6796,3.85,3.88
6797,3.86,3.90
6798,3.87,3.89
6799,3.86,3.88
6800,3.85,3.86
6801,3.83,3.84
6803,3.81,3.82
6804,3.79,3.81
6805,3.78,3.82
6806,3.80,3.84
6807,3.82,3.87
6808,3.84,3.90
6809,3.87,3.91
6810,3.87,3.90
6812,3.86,3.89
6813,3.86,3.90
6814,3.87,3.90
6815,3.87,3.89
6816,3.87,3.88
6817,3.85,3.85
6818,3.82,3.83
6819,3.80,3.82
6821,3.79,3.82
6822,3.80,3.84
6823,3.81,3.86
6824,3.84,3.89
6825,3.87,3.91
6827,3.88,3.91
6828,3.87,3.90
6830,3.87,3.90
6831,3.87,3.91
6832,3.88,3.90
6833,3.87,3.89
6834,3.85,3.86
6835,3.83,3.84
6836,3.81,3.82
6837,3.79,3.82
6839,3.79,3.83
6840,3.80,3.85
6841,3.82,3.88
6842,3.85,3.91
6843,3.87,3.91
6844,3.87,3.90
6845,3.86,3.89
6846,3.87,3.90
6848,3.88,3.91
6849,3.87,3.90
6850,3.86,3.88
6851,3.84,3.85
6852,3.83,3.83
6853,3.80,3.82
6854,3.79,3.83
6855,3.80,3.85
6857,3.82,3.87
6858,3.85,3.90
6859,3.87,3.91
6860,3.88,3.91
6861,3.87,3.90
6862,3.87,3.90
6863,3.87,3.91
6864,3.88,3.91
6866,3.87,3.89
6867,3.86,3.87
6868,3.84,3.85
6870,3.82,3.83
6871,3.80,3.83
6872,3.80,3.84
6873,3.81,3.87
6874,3.84,3.89
6876,3.87,3.92
6877,3.88,3.92
6878,3.88,3.91
6879,3.87,3.91
6880,3.87,3.91
6881,3.88,3.91
6882,3.88,3.91
6883,3.87,3.89
6885,3.85,3.86
6886,3.83,3.84
6887,3.81,3.83
6888,3.80,3.84
6889,3.81,3.86
6890,3.83,3.89
6891,3.86,3.91
6893,3.88,3.92
6894,3.89,3.91
6895,3.88,3.91
6896,3.87,3.91
6897,3.89,3.92
6898,3.89,3.91
6899,3.88,3.90
6900,3.86,3.88
6902,3.84,3.85
6903,3.82,3.84
6904,3.81,3.84
6905,3.81,3.86
6906,3.83,3.88
6907,3.85,3.91
6908,3.87,3.92
6909,3.89,3.92
6912,3.88,3.91
6913,3.87,3.91
6914,3.88,3.92
6915,3.89,3.91
6916,3.88,3.91
6917,3.87,3.89
6918,3.85,3.86
6919,3.83,3.84
6921,3.80,3.83
6922,3.80,3.85
6923,3.81,3.87
6924,3.84,3.90
6925,3.86,3.92
6926,3.88,3.92
6927,3.88,3.91
6928,3.87,3.90
6930,3.87,3.91
6931,3.88,3.91
6932,3.88,3.90
6933,3.87,3.89
6934,3.85,3.86
6935,3.83,3.84
6936,3.81,3.83
6937,3.80,3.83
6939,3.80,3.84
6940,3.81,3.87
6941,3.84,3.90
6942,3.86,3.91
6943,3.87,3.91
6944,3.87,3.90
6945,3.86,3.90
6946,3.86,3.91
6948,3.87,3.90
6949,3.87,3.89
6950,3.85,3.87
6951,3.83,3.85
6952,3.81,3.83
6953,3.79,3.82
6955,3.79,3.84
6957,3.80,3.86
6958,3.83,3.88
6959,3.85,3.91
6960,3.87,3.91
6961,3.87,3.90
6962,3.86,3.89
6963,3.86,3.90
6964,3.87,3.91
6966,3.87,3.90
6967,3.86,3.88
6968,3.85,3.86
6969,3.82,3.83
6970,3.80,3.82
6971,3.79,3.83
6972,3.80,3.85
6973,3.82,3.87
6975,3.84,3.90
6976,3.87,3.91
6977,3.88,3.91
6978,3.87,3.90
6979,3.86,3.90
6980,3.87,3.91
6981,3.88,3.90
6982,3.87,3.88
6984,3.85,3.86
6985,3.83,3.84
6986,3.81,3.82
6987,3.79,3.82
6988,3.79,3.83
6989,3.80,3.85
6990,3.83,3.88
6991,3.85,3.91
6993,3.87,3.91
6994,3.87,3.90
6995,3.86,3.89
6996,3.86,3.90
6998,3.87,3.90
6999,3.87,3.89
7000,3.86,3.87
7001,3.84,3.85
7003,3.81,3.82
7004,3.79,3.81
7005,3.79,3.82
7006,3.79,3.84
7007,3.81,3.86
7008,3.84,3.89
7009,3.86,3.90
7010,3.87,3.90
7012,3.86,3.88
7013,3.86,3.89
7014,3.86,3.89
7015,3.87,3.88
7016,3.85,3.87
7017,3.84,3.85
7018,3.82,3.82
7019,3.79,3.81
7021,3.78,3.81
7022,3.78,3.82
7023,3.79,3.84
7024,3.82,3.87
7025,3.85,3.89
7026,3.86,3.89
7027,3.86,3.88
7028,3.85,3.87
7030,3.86,3.88
7031,3.86,3.88
7032,3.86,3.87
7033,3.85,3.85
7034,3.82,3.83
7035,3.81,3.81
7036,3.78,3.80
7037,3.78,3.81
7040,3.79,3.84
7041,3.82,3.86
7042,3.84,3.89
7043,3.87,3.90
7044,3.87,3.89
7045,3.87,3.89
7046,3.86,3.90
7048,3.88,3.91
7049,3.88,3.90
7050,3.87,3.88
7051,3.86,3.86
7052,3.83,3.83
7053,3.81,3.82
7054,3.81,3.83
7055,3.81,3.85
7057,3.83,3.87
7058,3.86,3.90
7059,3.88,3.92
7060,3.90,3.92
7061,3.89,3.91
7062,3.89,3.91
7063,3.90,3.92
7064,3.91,3.92
7066,3.90,3.91
7067,3.89,3.89
7068,3.87,3.87
7069,3.84,3.84
7070,3.83,3.84
7071,3.83,3.85
7072,3.84,3.88
7073,3.86,3.91
7075,3.89,3.93
7076,3.91,3.93
7077,3.91,3.92
7078,3.90,3.92
7079,3.91,3.93
7080,3.91,3.94
7081,3.92,3.93
7083,3.91,3.91
7085,3.89,3.89
7086,3.86,3.86
7087,3.84,3.85
7088,3.83,3.86
7089,3.84,3.88
7090,3.86,3.90
7091,3.89,3.93
7093,3.91,3.94
7094,3.91,3.94
7095,3.91,3.92
7096,3.91,3.93
7097,3.91,3.94
7098,3.92,3.94
7099,3.91,3.92
7100,3.90,3.90
7102,3.88,3.88
7103,3.85,3.86
7104,3.84,3.86
7105,3.84,3.88
7106,3.85,3.90
7107,3.88,3.92
7108,3.90,3.94
7109,3.91,3.94
7111,3.91,3.93
7112,3.90,3.93
7113,3.91,3.94
7114,3.91,3.94
7115,3.91,3.93
7116,3.90,3.91
7117,3.88,3.89
7118,3.86,3.87
7120,3.84,3.86
7121,3.83,3.87
7122,3.84,3.89
7123,3.86,3.91
7124,3.89,3.93
7126,3.91,3.94
7127,3.91,3.93
7128,3.90,3.92
7130,3.90,3.93
7131,3.91,3.94
7132,3.91,3.93
7133,3.90,3.91
7134,3.88,3.89
7135,3.86,3.87
7136,3.84,3.85
7138,3.82,3.86
7139,3.83,3.87
7140,3.84,3.89
7141,3.87,3.92
7142,3.89,3.93
7143,3.90,3.93
7144,3.90,3.92
7145,3.89,3.92
7147,3.90,3.93
7148,3.90,3.92
7149,3.90,3.91
7150,3.88,3.89
7151,3.86,3.87
7152,3.83,3.84
7153,3.81,3.84
7154,3.81,3.85
7156,3.82,3.87
7157,3.84,3.90
7158,3.87,3.92
7159,3.89,3.92
7160,3.89,3.91
7161,3.88,3.91
7162,3.89,3.92
7163,3.90,3.93
7165,3.91,3.92
7166,3.90,3.91
7168,3.88,3.89
7169,3.86,3.86
7170,3.84,3.86
7171,3.83,3.86
7172,3.84,3.88
7174,3.86,3.91
7175,3.89,3.93
7176,3.91,3.95
7177,3.92,3.94
7178,3.92,3.94
7179,3.92,3.95
7180,3.93,3.97
7181,3.96,3.99
7183,3.97,3.98
7184,3.96,3.97
7185,3.94,3.94
7186,3.93,3.93
7187,3.92,3.94
7188,3.93,3.96
7189,3.95,3.99
7190,3.97,4.01
7192,4.00,4.04
7193,4.03,4.07
7194,4.06,4.10
7195,4.08,4.13
7196,4.11,4.15
7197,4.14,4.18
7198,4.16,4.21
7199,4.19,4.24
7201,4.22,4.27
7202,4.25,4.30
7203,4.27,4.32
7204,4.30,4.35
7205,4.32,4.37
7206,4.35,4.39
7207,4.36,4.41
7208,4.38,4.44
7211,4.40,4.46
7212,4.42,4.47
7213,4.44,4.49
7214,4.45,4.51
7215,4.46,4.53
7216,4.48,4.54
7217,4.49,4.55
7218,4.50,4.57
7220,4.51,4.58
7221,4.52,4.59
7222,4.52,4.60
7223,4.53,4.61
7224,4.54,4.62
7225,4.54,4.62
7226,4.54,4.63
7227,4.55,4.64
7229,4.55,4.64
7230,4.55,4.65
7231,4.55,4.66
7232,4.55,4.66
7233,4.55,4.67
7234,4.55,4.67
7235,4.54,4.67
7236,4.54,4.68
7238,4.54,4.68
7239,4.54,4.68
7240,4.53,4.68
7241,4.53,4.69
7242,4.53,4.69
7243,4.52,4.69
7244,4.52,4.69
7245,4.51,4.69
7247,4.51,4.70
7248,4.51,4.70
7249,4.50,4.70
7250,4.50,4.70
7251,4.49,4.70
7252,4.49,4.70
7254,4.49,4.70
7255,4.48,4.71
7257,4.48,4.71
7258,4.48,4.70
7259,4.48,4.71
7260,4.47,4.71
7261,4.47,4.71
7262,4.47,4.71
7263,4.46,4.71
7264,4.46,4.71
7266,4.46,4.71
7267,4.46,4.71
7268,4.45,4.71
7269,4.45,4.71
7270,4.45,4.72
7271,4.45,4.72
7272,4.45,4.72
7273,4.44,4.72
7275,4.44,4.72
7276,4.44,4.72
7277,4.44,4.72
7278,4.44,4.72
7279,4.44,4.73
7280,4.44,4.73
7281,4.44,4.73
7282,4.43,4.73
7284,4.43,4.73
7285,4.43,4.73
7286,4.43,4.73
7287,4.43,4.73
7288,4.43,4.74
7289,4.43,4.74
7290,4.43,4.74
7291,4.43,4.74
7293,4.43,4.74
7294,4.43,4.74
7296,4.43,4.74
7297,4.43,4.75
7298,4.43,4.75
7299,4.43,4.75
7300,4.43,4.75
7302,4.43,4.75
7303,4.43,4.75
7304,4.43,4.75
7305,4.43,4.75
7306,4.43,4.75
7307,4.43,4.76
7308,4.43,4.76
7309,4.43,4.76
7311,4.43,4.76
7312,4.43,4.76
7313,4.43,4.76
7314,4.43,4.76
7315,4.43,4.76
7316,4.43,4.76
7317,4.43,4.77
7319,4.43,4.77
7320,4.43,4.77
7321,4.43,4.77
7322,4.43,4.77
7323,4.43,4.77
7324,4.43,4.77
7325,4.43,4.77
7326,4.43,4.77
7328,4.43,4.77
7329,4.43,4.77
7330,4.43,4.78
7331,4.43,4.77
7332,4.42,4.78
7333,4.43,4.78
7334,4.42,4.78
7336,4.42,4.78
7337,4.42,4.78
7339,4.42,4.78
7340,4.42,4.78
7341,4.42,4.78
7342,4.42,4.78
7343,4.42,4.78
7344,4.42,4.78
7346,4.42,4.78
7347,4.42,4.78
7348,4.43,4.78
7349,4.42,4.79
7350,4.42,4.79
7351,4.42,4.79
7352,4.42,4.79
7353,4.43,4.79
7355,4.42,4.79
7356,4.42,4.80
7357,4.42,4.80
7358,4.42,4.80
7359,4.42,4.80
7360,4.43,4.80
7361,4.42,4.80
7362,4.42,4.81
7364,4.42,4.81
7365,4.42,4.81
7366,4.42,4.81
7367,4.42,4.81
7368,4.42,4.81
7369,4.42,4.82
7370,4.42,4.82
7371,4.42,4.82
7373,4.42,4.82
7374,4.42,4.83
7375,4.42,4.83
7376,4.42,4.83
7377,4.42,4.83
7378,4.42,4.84
7379,4.42,4.84
7380,4.42,4.84
7383,4.42,4.85
7384,4.42,4.85
7385,4.42,4.85
7386,4.42,4.86
7387,4.42,4.86
7388,4.42,4.87
7389,4.42,4.87
7390,4.42,4.88
7392,4.42,4.88
7393,4.42,4.88
7394,4.42,4.89
7395,4.42,4.89
7396,4.42,4.90
7397,4.42,4.90
7398,4.42,4.90
7399,4.42,4.90
7401,4.42,4.91
7402,4.42,4.91
7403,4.42,4.91
7404,4.42,4.91
7405,4.42,4.91
7406,4.42,4.92
7407,4.42,4.92
7408,4.42,4.92
7410,4.42,4.92
7411,4.42,4.93
7412,4.42,4.93
7413,4.42,4.93
7414,4.42,4.93
7415,4.42,4.93
7416,4.42,4.93
7417,4.42,4.93
7419,4.42,4.93
7420,4.42,4.94
7421,4.41,4.94
7422,4.41,4.94
7424,4.41,4.94
7425,4.42,4.94
7426,4.42,4.94
7427,4.42,4.94
7429,4.41,4.94
7430,4.41,4.94
7431,4.42,4.95
7432,4.42,4.95
7433,4.42,4.95
7434,4.41,4.95
7435,4.41,4.95
7436,4.41,4.95
7438,4.41,4.95
7439,4.41,4.95
7440,4.41,4.95
7441,4.41,4.95
7442,4.41,4.95
7443,4.41,4.95
7444,4.41,4.95
7446,4.41,4.95
7447,4.41,4.95
7448,4.41,4.95
7449,4.42,4.95
7450,4.41,4.96
7451,4.41,4.95
7452,4.41,4.96
7453,4.41,4.96
7455,4.41,4.96
7456,4.41,4.96
7457,4.41,4.96
7458,4.41,4.96
7459,4.41,4.96
7460,4.41,4.96
7461,4.41,4.96
7463,4.41,4.96
7464,4.41,4.96
7465,4.41,4.96
7467,4.41,4.96
7468,4.41,4.96
7469,4.41,4.96
7470,4.41,4.96
7471,4.41,4.96
7473,4.41,4.96
7474,4.41,4.96
7475,4.41,4.96
7476,4.41,4.96
7477,4.41,4.96
7478,4.41,4.96
7479,4.41,4.96
7480,4.41,4.96
7482,4.41,4.96
7483,4.41,4.96
7484,4.41,4.96
7485,4.41,4.96
7486,4.41,4.96
7487,4.41,4.96
7488,4.41,4.96
7489,4.41,4.96
7491,4.41,4.96
7492,4.41,4.96
7493,4.41,4.96
7494,4.41,4.96
7495,4.41,4.96
7496,4.41,4.96
7497,4.41,4.97
7498,4.41,4.97
7500,4.41,4.96
7501,4.41,4.97
7502,4.41,4.96
7503,4.41,4.97
7504,4.41,4.97
7505,4.41,4.97
7506,4.41,4.97
7508,4.41,4.97
7510,4.41,4.97
7511,4.41,4.96
7512,4.41,4.97
7513,4.41,4.96
7514,4.41,4.97
7515,4.41,4.97
7516,4.41,4.97
7518,4.41,4.96
7519,4.41,4.96
7520,4.41,4.97
7521,4.41,4.97
7522,4.41,4.97
7523,4.41,4.97
7524,4.41,4.97
7526,4.41,4.96
7527,4.41,4.97
7528,4.41,4.97
7529,4.41,4.97
7530,4.41,4.97
7531,4.41,4.97
7532,4.41,4.97
7534,4.41,4.97
7535,4.41,4.97
7536,4.40,4.97
7537,4.41,4.97
7538,4.41,4.97
7539,4.41,4.97
7540,4.41,4.97
7542,4.41,4.97
7543,4.41,4.97
7544,4.41,4.97
7545,4.41,4.97
7546,4.41,4.97
7547,4.40,4.97
7548,4.41,4.97
7550,4.41,4.97
7552,4.41,4.97
7553,4.41,4.97
7554,4.41,4.97
7555,4.40,4.97
7556,4.40,4.97
7557,4.40,4.97
7558,4.40,4.97
7560,4.40,4.97
7561,4.40,4.97
7562,4.40,4.97
7563,4.40,4.97
7564,4.40,4.97
7565,4.40,4.97
7566,4.40,4.97
7568,4.40,4.97
7569,4.40,4.97
7570,4.40,4.97
7571,4.40,4.97
7572,4.40,4.97
7573,4.40,4.97
7574,4.40,4.97
7575,4.40,4.97
7577,4.40,4.97
7578,4.40,4.97
7579,4.40,4.97
7580,4.40,4.97
7581,4.40,4.97
7582,4.40,4.97
7583,4.40,4.97
7584,4.40,4.97
7586,4.40,4.97
7587,4.40,4.97
7588,4.40,4.97
7589,4.40,4.97
7590,4.40,4.97
7591,4.40,4.97
7592,4.40,4.97
7595,4.40,4.97
7596,4.40,4.97
7597,4.40,4.97
7598,4.40,4.97
7599,4.40,4.97
7600,4.40,4.97
7601,4.40,4.97
7602,4.40,4.97
7604,4.40,4.97
7605,4.40,4.97
7606,4.40,4.97
7607,4.40,4.97
7608,4.40,4.97
7609,4.40,4.97
7610,4.40,4.97
7611,4.40,4.97
7613,4.40,4.97
7614,4.40,4.97
7615,4.40,4.97
7616,4.40,4.97
7617,4.40,4.97
7618,4.40,4.97
7619,4.40,4.97
7621,4.40,4.97
7622,4.40,4.97
7623,4.40,4.97
7624,4.40,4.97
7625,4.40,4.97
7626,4.39,4.97
7627,4.40,4.97
7628,4.40,4.97
7630,4.40,4.97
7631,4.40,4.97
7632,4.39,4.97
7633,4.39,4.97
7634,4.39,4.96
7635,4.39,4.96
7636,4.40,4.96
7638,4.39,4.95
7640,4.40,4.95
7641,4.39,4.94
7642,4.40,4.94
7643,4.40,4.93
7644,4.40,4.92
7645,4.40,4.92
7646,4.40,4.91
7647,4.40,4.90
7649,4.40,4.89
7650,4.40,4.88
7651,4.40,4.88
7652,4.40,4.87
7653,4.40,4.86
7654,4.40,4.85
7655,4.40,4.84
7656,4.40,4.83
7658,4.40,4.82
7659,4.40,4.81
7660,4.40,4.81
7661,4.40,4.79
7662,4.39,4.78
7663,4.39,4.78
7664,4.39,4.77
7665,4.39,4.76
7667,4.39,4.75
7668,4.39,4.74
7669,4.39,4.73
7670,4.39,4.72
7671,4.39,4.71
7672,4.39,4.70
7673,4.39,4.69
7674,4.39,4.68
7676,4.39,4.67
7677,4.38,4.67
7678,4.38,4.66
7680,4.38,4.65
7681,4.38,4.64
7682,4.38,4.63
7683,4.38,4.62
7684,4.38,4.61
7686,4.38,4.60
7687,4.38,4.60
7688,4.38,4.59
7689,4.38,4.58
7690,4.38,4.57
7691,4.38,4.57
7692,4.38,4.56
7693,4.37,4.55
7695,4.38,4.54
7696,4.38,4.54
7697,4.37,4.53
7698,4.37,4.52
7699,4.37,4.51
7700,4.37,4.51
7701,4.37,4.50
7702,4.37,4.49
7704,4.37,4.48
7705,4.37,4.48
7706,4.37,4.47
7707,4.37,4.47
7708,4.37,4.46
7709,4.37,4.45
7710,4.37,4.45
7712,4.37,4.44
7713,4.37,4.44
7714,4.37,4.43
7715,4.37,4.43
7716,4.37,4.42
7717,4.37,4.41
7718,4.37,4.41
7719,4.37,4.40
7721,4.37,4.40
7723,4.37,4.39
7724,4.37,4.39
7725,4.37,4.38
7726,4.37,4.38
7727,4.37,4.37
7728,4.37,4.37
7729,4.37,4.37
7731,4.37,4.36
7732,4.37,4.36
7733,4.37,4.35
7734,4.37,4.35
7735,4.37,4.35
7736,4.37,4.35
7737,4.37,4.34
7738,4.37,4.34
7740,4.37,4.34
7741,4.37,4.33
7742,4.37,4.33
7743,4.37,4.33
7744,4.37,4.32
7745,4.37,4.32
7746,4.37,4.32
7747,4.37,4.31
7749,4.37,4.31
7750,4.37,4.31
7751,4.37,4.31
7752,4.37,4.31
7753,4.37,4.30
7754,4.37,4.30
7755,4.37,4.30
7757,4.37,4.30
7758,4.37,4.30
7759,4.37,4.30
7760,4.37,4.29
7761,4.37,4.29
7762,4.38,4.29
7763,4.38,4.29
7764,4.38,4.29
7767,4.37,4.29
7768,4.37,4.29
7769,4.37,4.29
7770,4.37,4.28
7771,4.38,4.28
7772,4.38,4.28
7773,4.38,4.28
7774,4.37,4.28
7776,4.38,4.28
7777,4.38,4.28
7778,4.38,4.28
7779,4.38,4.28
7780,4.38,4.28
7781,4.38,4.28
7782,4.38,4.28
7783,4.38,4.28
7785,4.38,4.28
7786,4.38,4.28
7787,4.38,4.28
7788,4.38,4.28
7789,4.38,4.28
7790,4.38,4.28
7791,4.38,4.28
7792,4.38,4.28
7794,4.38,4.28
7795,4.38,4.28
7796,4.38,4.29
7797,4.38,4.29
7798,4.38,4.29
7799,4.38,4.29
7800,4.38,4.29
7801,4.38,4.29
7803,4.38,4.29
7804,4.38,4.29
7805,4.38,4.29
7806,4.38,4.29
7808,4.38,4.30
7809,4.38,4.30
7810,4.38,4.30
7811,4.38,4.30
7813,4.38,4.30
7814,4.38,4.30
7815,4.38,4.30
7816,4.38,4.30
7817,4.38,4.30
7818,4.38,4.30
7819,4.38,4.31
7820,4.38,4.31
7822,4.38,4.31
7823,4.38,4.31
7824,4.38,4.31
7825,4.38,4.31
7826,4.38,4.31
7827,4.38,4.31
7828,4.38,4.31
7830,4.38,4.32
7831,4.38,4.32
7832,4.38,4.32
7833,4.38,4.32
7834,4.38,4.32
7835,4.38,4.32
7836,4.38,4.32
7838,4.38,4.32
7839,4.38,4.32
7840,4.38,4.32
7841,4.38,4.32
7842,4.38,4.32
7843,4.38,4.32
7844,4.38,4.33
7845,4.38,4.33
7847,4.38,4.33
7848,4.38,4.33
7849,4.38,4.33
7851,4.38,4.33
7852,4.38,4.33
7853,4.38,4.33
7854,4.38,4.33
7856,4.38,4.33
7857,4.38,4.33
7858,4.38,4.32
7859,4.38,4.32
7860,4.38,4.32
7861,4.38,4.32
7862,4.38,4.32
7863,4.38,4.32
7865,4.38,4.32
7866,4.38,4.32
7867,4.38,4.32
7868,4.38,4.32
7869,4.38,4.31
7870,4.38,4.32
7871,4.39,4.31
7872,4.39,4.31
7874,4.38,4.31
7875,4.39,4.31
7876,4.38,4.31
7877,4.38,4.31
7878,4.38,4.31
7879,4.38,4.31
7880,4.38,4.31
7881,4.38,4.31
7883,4.38,4.32
7884,4.38,4.32
7885,4.38,4.32
7886,4.38,4.32
7887,4.38,4.33
7888,4.38,4.33
7889,4.38,4.34
7891,4.39,4.34
7892,4.39,4.35
7894,4.39,4.35
7895,4.39,4.35
7896,4.39,4.35
7897,4.39,4.36
7898,4.39,4.36
7900,4.39,4.37
7901,4.39,4.38
7902,4.39,4.38
7903,4.39,4.39
7904,4.39,4.39
7905,4.39,4.40
7906,4.39,4.40
7907,4.39,4.41
7909,4.39,4.41
7910,4.39,4.42
7911,4.39,4.42
7912,4.39,4.43
7913,4.39,4.43
7914,4.39,4.44
7915,4.39,4.45
7916,4.40,4.45
7918,4.40,4.46
7919,4.40,4.46
7920,4.40,4.47
7921,4.40,4.48
7922,4.40,4.48
7923,4.40,4.49
7924,4.40,4.50
7925,4.40,4.50
7927,4.40,4.51
7928,4.40,4.51
7929,4.40,4.52
7930,4.40,4.53
7931,4.40,4.53
7932,4.40,4.54
7933,4.39,4.54
7934,4.40,4.55
7937,4.39,4.55
7938,4.40,4.56
7939,4.40,4.56
7940,4.40,4.57
7941,4.40,4.57
7942,4.40,4.58
7943,4.40,4.58
7944,4.40,4.59
7946,4.40,4.59
7947,4.40,4.60
7948,4.40,4.61
7949,4.40,4.61
7950,4.40,4.62
7951,4.39,4.62
7952,4.40,4.63
7953,4.40,4.63
7955,4.40,4.64
7956,4.40,4.65
7957,4.40,4.65
7958,4.40,4.66
7959,4.40,4.66
7960,4.40,4.67
7961,4.40,4.68
7962,4.40,4.68
7964,4.40,4.69
7965,4.40,4.70
7966,4.40,4.70
7967,4.40,4.71
7968,4.40,4.72
7969,4.40,4.73
7970,4.40,4.73
7971,4.40,4.74
7973,4.40,4.75
7974,4.40,4.76
7975,4.40,4.77
7976,4.40,4.78
7977,4.40,4.78
7979,4.40,4.79
7980,4.40,4.80
7981,4.40,4.80
7983,4.40,4.81
7984,4.40,4.82
7985,4.40,4.82
7986,4.40,4.83
7987,4.40,4.83
7988,4.40,4.84
7989,4.40,4.84
7990,4.40,4.85
7992,4.40,4.85
7993,4.40,4.86
7994,4.40,4.86
7995,4.40,4.87
7996,4.40,4.87
7997,4.40,4.87
7998,4.40,4.88
7999,4.40,4.88
8001,4.40,4.88
8002,4.40,4.88
8003,4.40,4.89
8004,4.40,4.89
8005,4.40,4.89
8006,4.40,4.90
8007,4.40,4.90
8008,4.40,4.90
8009,4.40,4.90
8011,4.40,4.90
8012,4.40,4.90
8013,4.40,4.91
8014,4.40,4.91
8015,4.40,4.91
8016,4.40,4.91
8017,4.40,4.92
8018,4.40,4.92
8020,4.40,4.92
8022,4.40,4.92
8023,4.40,4.92
8024,4.40,4.93
8025,4.40,4.93
8026,4.40,4.93
8027,4.40,4.93
8028,4.40,4.93
8030,4.40,4.93
8031,4.40,4.93
8032,4.40,4.93
8033,4.40,4.93
8034,4.40,4.93
8035,4.40,4.94
8036,4.40,4.94
8037,4.40,4.94
8039,4.40,4.94
8040,4.40,4.94
8041,4.40,4.94
8042,4.40,4.94
8043,4.40,4.94
8044,4.40,4.94
8045,4.40,4.95
8046,4.40,4.95
8048,4.40,4.95
8049,4.40,4.95
8050,4.40,4.95
8051,4.40,4.95
8052,4.40,4.95
8053,4.40,4.95
8054,4.40,4.95
8055,4.40,4.95
8057,4.40,4.95
8058,4.40,4.95
8059,4.40,4.95
8060,4.40,4.95
8061,4.40,4.96
8062,4.40,4.95
8064,4.40,4.95
8065,4.40,4.95
8067,4.40,4.96
8068,4.40,4.96
8069,4.40,4.96
8070,4.40,4.96
8071,4.40,4.96
8072,4.40,4.96
8073,4.40,4.96
8074,4.40,4.96
8076,4.40,4.96
8077,4.40,4.96
8078,4.40,4.96
8079,4.40,4.96
8080,4.40,4.96
8081,4.40,4.96
8082,4.40,4.96
8084,4.40,4.96
8085,4.40,4.96
8086,4.40,4.96
8087,4.40,4.96
8088,4.40,4.96
8089,4.40,4.96
8090,4.40,4.96
8091,4.40,4.96
8092,4.40,4.96
8094,4.40,4.96
8095,4.40,4.96
8096,4.40,4.96
8097,4.40,4.96
8098,4.40,4.96
8099,4.40,4.96
8100,4.40,4.96
8101,4.40,4.96
8103,4.40,4.96
8104,4.40,4.97
8105,4.40,4.96
8107,4.40,4.97
8108,4.40,4.97
8109,4.40,4.97
8110,4.40,4.97
8111,4.40,4.97
8113,4.40,4.97
8114,4.40,4.97
8115,4.40,4.97
8116,4.40,4.97
8117,4.39,4.97
8118,4.39,4.96
8119,4.40,4.96
8120,4.40,4.96
8122,4.39,4.96
8123,4.40,4.95
8124,4.40,4.95
8125,4.40,4.94
8126,4.40,4.94
8127,4.40,4.93
8128,4.40,4.93
8129,4.40,4.92
8131,4.40,4.92
8132,4.40,4.91
8133,4.40,4.90
8134,4.40,4.90
8135,4.40,4.89
8136,4.40,4.88
8137,4.40,4.87
8138,4.40,4.87
8140,4.40,4.86
8141,4.40,4.85
8142,4.40,4.84
8143,4.40,4.84
8144,4.40,4.83
8145,4.40,4.82
8146,4.40,4.81
8147,4.40,4.80
8150,4.40,4.79
8151,4.40,4.79
8152,4.40,4.78
8153,4.40,4.78
8154,4.40,4.77
8155,4.40,4.76
8156,4.40,4.75
8157,4.40,4.75
8159,4.39,4.74
8160,4.39,4.73
8161,4.39,4.72
8162,4.39,4.72
8163,4.39,4.71
8164,4.39,4.70
8165,4.39,4.70
8166,4.39,4.69
8168,4.39,4.69
8169,4.39,4.68
8170,4.39,4.68
8171,4.39,4.67
8172,4.39,4.67
8173,4.39,4.66
8174,4.39,4.66
8175,4.39,4.65
8177,4.39,4.65
8178,4.39,4.65
8179,4.39,4.64
8180,4.39,4.64
8181,4.39,4.64
8182,4.39,4.63
8183,4.39,4.63
8184,4.39,4.63
8186,4.38,4.63
8187,4.39,4.62
8188,4.39,4.62
8189,4.39,4.62
8190,4.39,4.62
8192,4.39,4.62
8193,4.39,4.61
8194,4.39,4.61
8196,4.39,4.61
8197,4.39,4.61
8198,4.39,4.61
8199,4.39,4.61
8200,4.39,4.61
8201,4.39,4.61
8202,4.39,4.61
8203,4.39,4.60
8205,4.39,4.60
8206,4.39,4.60
8207,4.39,4.60
8208,4.39,4.60
8209,4.39,4.60
8210,4.39,4.60
8211,4.39,4.60
8212,4.39,4.60
8213,4.39,4.60
8215,4.39,4.60
8216,4.39,4.60
8217,4.39,4.60
8218,4.39,4.60
8219,4.39,4.61
8220,4.39,4.61
8221,4.40,4.61
8222,4.40,4.61
8224,4.40,4.61
8225,4.40,4.61
8226,4.40,4.61
8227,4.40,4.61
8228,4.40,4.61
8229,4.40,4.61
8230,4.40,4.61
8231,4.40,4.61
8233,4.40,4.61
8235,4.40,4.62
8236,4.40,4.62
8237,4.40,4.62
8238,4.40,4.62
8239,4.40,4.62
8240,4.40,4.62
8241,4.41,4.62
8243,4.40,4.62
8244,4.40,4.62
8245,4.40,4.62
8246,4.40,4.63
8247,4.40,4.63
8248,4.40,4.63
8249,4.41,4.63
8250,4.41,4.63
8252,4.41,4.63
8253,4.41,4.63
8254,4.41,4.63
8255,4.41,4.63
8256,4.41,4.63
8257,4.41,4.64
8258,4.41,4.64
8259,4.41,4.64
8261,4.41,4.64
8262,4.41,4.64
8263,4.41,4.64
8264,4.41,4.64
8265,4.41,4.64
8266,4.41,4.64
8267,4.41,4.64
8268,4.41,4.64
8270,4.41,4.64
8271,4.41,4.64
8272,4.41,4.64
8273,4.41,4.65
8274,4.41,4.65
8275,4.41,4.65
8276,4.41,4.65
8278,4.41,4.65
8280,4.41,4.65
8281,4.41,4.65
8282,4.41,4.65
8283,4.41,4.65
8284,4.41,4.65
8285,4.41,4.65
8286,4.41,4.66
8287,4.41,4.66
8289,4.41,4.66
8290,4.41,4.66
8291,4.41,4.66
8292,4.41,4.66
8293,4.41,4.66
8294,4.41,4.66
8295,4.41,4.66
8296,4.41,4.66
8298,4.41,4.66
8299,4.41,4.66
8300,4.41,4.66
8301,4.41,4.66
8302,4.41,4.66
8303,4.41,4.66
8304,4.41,4.66
8305,4.41,4.66
8307,4.41,4.66
8308,4.41,4.67
8309,4.41,4.67
8310,4.41,4.67
8311,4.41,4.67
8312,4.41,4.67
8313,4.41,4.67
8314,4.41,4.67
8316,4.41,4.67
8317,4.41,4.67
8318,4.41,4.67
8320,4.41,4.67
8321,4.41,4.67
8322,4.41,4.67
8323,4.41,4.68
8324,4.41,4.68
8326,4.40,4.65
8327,4.38,4.62
8328,4.36,4.60
8329,4.34,4.59
8330,4.34,4.58
8331,4.32,4.56
8332,4.30,4.52
8333,4.26,4.48
8335,4.22,4.43
8336,4.18,4.40
8337,4.15,4.39
8338,4.13,4.38
8339,4.13,4.38
8340,4.13,4.38
8341,4.13,4.38
8342,4.12,4.36
8344,4.10,4.34
8345,4.08,4.33
8346,4.08,4.33
8347,4.08,4.32
8348,4.06,4.29
8349,4.04,4.25
8350,4.01,4.21
8352,3.97,4.18
8353,3.94,4.17
8354,3.93,4.16
8355,3.93,4.17
8356,3.94,4.18
8357,3.95,4.19
8358,3.96,4.17
8359,3.95,4.15
8361,3.93,4.14
8363,3.93,4.15
8364,3.94,4.14
8365,3.93,4.12
8366,3.91,4.09
8367,3.89,4.06
8368,3.86,4.02
8369,3.84,4.00
8371,3.82,4.00
8372,3.83,4.01
8373,3.84,4.02
8374,3.86,4.04
8375,3.88,4.04
8376,3.88,4.03
8377,3.87,4.02
8378,3.87,4.02
8380,3.88,4.02
8381,3.88,4.01
8382,3.87,3.99
8383,3.86,3.96
8384,3.83,3.93
8385,3.81,3.91
8386,3.79,3.91
8387,3.79,3.91
8389,3.81,3.93
8390,3.83,3.95
8391,3.85,3.97
8392,3.87,3.96
8393,3.86,3.95
8394,3.86,3.95
8395,3.87,3.96
8396,3.88,3.96
8398,3.88,3.94
8399,3.86,3.92
8400,3.84,3.90
8401,3.82,3.87
8402,3.80,3.86
8403,3.80,3.87
8404,3.80,3.89
8406,3.82,3.91
8408,3.85,3.93
8409,3.87,3.93
8410,3.88,3.92
8411,3.87,3.92
8412,3.87,3.93
8413,3.88,3.93
8414,3.89,3.92
8415,3.88,3.91
8417,3.86,3.88
8418,3.84,3.86
8419,3.81,3.84
8420,3.80,3.84
8421,3.80,3.86
8422,3.82,3.88
8423,3.84,3.91
8424,3.87,3.92
8426,3.88,3.92
8427,3.88,3.91
8428,3.88,3.91
8429,3.89,3.92
8430,3.90,3.92
8431,3.89,3.91
8432,3.88,3.89
8433,3.86,3.87
8435,3.84,3.85
8436,3.82,3.84
8437,3.82,3.85
8438,3.83,3.87
8439,3.85,3.90
8440,3.87,3.92
8441,3.90,3.92
8442,3.90,3.91
8444,3.89,3.91
8445,3.90,3.92
8446,3.91,3.93
8448,3.91,3.92
8449,3.90,3.91
8450,3.89,3.89
8451,3.86,3.86
8452,3.84,3.85
8454,3.83,3.86
8455,3.83,3.87
8456,3.85,3.89
8457,3.88,3.91
8458,3.90,3.93
8459,3.91,3.93
8460,3.91,3.92
8461,3.90,3.93
8463,3.91,3.94
8464,3.92,3.93
8465,3.91,3.91
8466,3.90,3.90
8467,3.87,3.87
8468,3.85,3.85
8469,3.83,3.85
8470,3.83,3.86
8472,3.84,3.88
8473,3.86,3.90
8474,3.89,3.92
8475,3.90,3.93
8476,3.90,3.92
8477,3.90,3.92
8478,3.91,3.93
8479,3.91,3.93
8481,3.91,3.92
8482,3.91,3.91
8483,3.89,3.89
8484,3.86,3.86
8485,3.84,3.85
8486,3.83,3.86
8487,3.84,3.87
8488,3.85,3.90
8491,3.88,3.92
8492,3.90,3.93
8493,3.91,3.93
8494,3.90,3.92
8495,3.90,3.93
8496,3.91,3.94
8497,3.92,3.94
8498,3.91,3.92
8500,3.90,3.90
8501,3.88,3.88
8502,3.85,3.86
8503,3.84,3.85
8504,3.84,3.87
8505,3.85,3.89
8506,3.87,3.91
8507,3.90,3.93
8509,3.91,3.93
8510,3.91,3.92
8511,3.90,3.92
8512,3.91,3.93
8513,3.91,3.93
8514,3.91,3.92
8515,3.90,3.90
8516,3.88,3.88
8518,3.86,3.86
8519,3.83,3.85
8520,3.83,3.85
8521,3.83,3.87
8522,3.85,3.89
8523,3.88,3.92
8524,3.90,3.93
8526,3.90,3.92
8527,3.90,3.91
8528,3.90,3.92
8529,3.91,3.93
8530,3.91,3.93
8531,3.91,3.91
8532,3.89,3.89
8534,3.87,3.87
8536,3.84,3.85
8537,3.83,3.85
8538,3.83,3.87
8539,3.84,3.89
8540,3.87,3.91
8541,3.89,3.93
8542,3.91,3.93
8543,3.91,3.92
8545,3.90,3.92
8546,3.91,3.94
8547,3.92,3.93
8548,3.91,3.92
8549,3.90,3.90
8550,3.88,3.88
8551,3.86,3.86
8552,3.83,3.85
8554,3.83,3.86
8555,3.84,3.88
8556,3.86,3.90
8557,3.89,3.93
8558,3.91,3.93
8559,3.91,3.92
8560,3.90,3.92
8561,3.91,3.93
8563,3.91,3.94
8564,3.91,3.93
8565,3.91,3.91
8566,3.89,3.89
8567,3.86,3.86
8568,3.84,3.85
8569,3.83,3.85
8570,3.83,3.87
8572,3.85,3.89
8573,3.87,3.91
8574,3.90,3.93
8576,3.91,3.92
8577,3.90,3.91
8578,3.90,3.92
8579,3.91,3.93
8581,3.91,3.93
8582,3.91,3.91
8583,3.90,3.90
8584,3.87,3.87
8585,3.85,3.85
8586,3.83,3.85
8587,3.83,3.86
8588,3.84,3.88
8590,3.86,3.91
8591,3.89,3.93
8592,3.91,3.93
8593,3.91,3.92
8594,3.90,3.92
8595,3.91,3.94
8596,3.92,3.94
8597,3.91,3.93
8599,3.91,3.91
8600,3.89,3.89
8601,3.86,3.86
8602,3.84,3.85
8603,3.83,3.86
8604,3.84,3.88
8605,3.86,3.90
8606,3.88,3.93
8608,3.91,3.94
8609,3.91,3.93
8610,3.90,3.92
8611,3.90,3.93
8612,3.91,3.94
8613,3.91,3.93
8614,3.91,3.91
8616,3.89,3.89
8617,3.87,3.87
8619,3.84,3.85
8620,3.83,3.85
8621,3.83,3.86
8622,3.84,3.89
8623,3.86,3.91
8624,3.89,3.93
8626,3.90,3.93
8627,3.90,3.92
8628,3.90,3.92
8629,3.90,3.94
8630,3.91,3.94
8631,3.91,3.92
8632,3.90,3.91
8633,3.88,3.88
8635,3.85,3.86
8636,3.83,3.85
8637,3.83,3.86
8638,3.83,3.88
8639,3.85,3.90
8640,3.88,3.93
8641,3.90,3.94
8642,3.91,3.93
8644,3.90,3.92
8645,3.90,3.93
8646,3.91,3.94
8647,3.91,3.93
8648,3.90,3.91
8649,3.89,3.89
8650,3.86,3.87
8651,3.84,3.85
8653,3.82,3.85
8654,3.83,3.87
8655,3.84,3.89
8656,3.86,3.91
8657,3.89,3.93
8658,3.90,3.93
8659,3.89,3.92
8660,3.89,3.92
8663,3.90,3.93
8664,3.90,3.92
8665,3.90,3.91
8666,3.88,3.89
8667,3.86,3.87
8668,3.83,3.85
8669,3.81,3.84
8670,3.81,3.85
8672,3.82,3.87
8673,3.84,3.90
8674,3.86,3.92
8675,3.89,3.92
8676,3.89,3.91
8677,3.88,3.91
8678,3.88,3.92
8679,3.89,3.92
8681,3.89,3.91
8682,3.88,3.90
8683,3.86,3.88
8684,3.84,3.85
8685,3.82,3.84
8686,3.81,3.84
8687,3.81,3.86
8688,3.83,3.88
8690,3.85,3.91
8691,3.88,3.92
8692,3.89,3.92
8693,3.88,3.91
8694,3.88,3.91
8695,3.89,3.92
8696,3.89,3.91
8697,3.89,3.90
8699,3.87,3.88
8700,3.85,3.86
8701,3.82,3.84
8702,3.81,3.84
8704,3.81,3.85
8705,3.82,3.87
8706,3.84,3.90
8708,3.87,3.92
8709,3.88,3.92
8710,3.89,3.91
8711,3.87,3.91
8712,3.88,3.92
8713,3.89,3.91
8714,3.89,3.91
8715,3.87,3.89
8717,3.85,3.86
8718,3.83,3.84
8719,3.81,3.83
8720,3.80,3.84
8721,3.81,3.86
8722,3.83,3.88
8723,3.85,3.91
8724,3.88,3.92
8726,3.88,3.91
8727,3.88,3.91
