time_ms,ch1_v,ch2_v
444478,1.6657,2.4482
444479,1.6633,2.4458
444480,1.6649,2.4869
444481,1.6673,2.4450
444482,1.6641,2.4442
444483,1.6641,2.4458
444484,1.6633,2.4450
444485,1.6681,2.4458
444486,1.6689,2.4474
444487,1.6657,2.4442
444488,1.6681,2.4458
444489,1.6681,2.4450
444490,1.6673,2.4458
444491,1.6633,2.4490
444492,1.6641,2.4466
444493,1.6673,2.4474
444494,1.6633,2.4426
444495,1.6681,2.4426
444496,1.6641,2.4442
444497,1.6673,2.4450
444498,1.6633,2.4474
444499,1.6673,2.4482
444500,1.6633,2.4458
444501,1.6649,2.4458
444502,1.6673,2.4482
444503,1.6633,2.4450
444504,1.6673,2.4361
444505,1.6689,2.4474
444506,1.6689,2.4426
444507,1.6641,2.4442
444508,1.6657,2.4450
444509,1.6641,2.4458
444510,1.6641,2.4450
444511,1.6722,2.4466
444512,1.6689,2.4450
444513,1.6496,2.4450
444514,1.6641,2.4498
444515,1.6705,2.4458
444516,1.6625,2.4482
444517,1.6641,2.4450
444518,1.6633,2.4450
444519,1.6657,2.4426
444520,1.6633,2.4458
444521,1.6665,2.4458
444522,1.6649,2.4426
444523,1.6617,2.4426
444524,1.6633,2.4474
444525,1.6705,2.4450
444526,1.6665,2.4538
444527,1.6657,2.4474
444528,1.6633,2.4627
444529,1.6633,2.4498
444530,1.6657,2.4418
444531,1.6673,2.4466
444532,1.6585,2.4474
444533,1.6649,2.4426
444534,1.6633,2.4442
444535,1.6649,2.4426
444536,1.6649,2.4474
444537,1.6641,2.4393
444538,1.6673,2.4426
444539,1.6657,2.4474
444540,1.6689,2.4474
444541,1.6649,2.4466
444542,1.6673,2.4458
444543,1.6689,2.4466
444544,1.6657,2.4369
444545,1.6649,2.4474
444546,1.6641,2.4369
444547,1.6657,2.4426
444548,1.6657,2.4450
444549,1.6802,2.4418
444550,1.6641,2.4458
444551,1.6673,2.4442
444552,1.6657,2.4490
444553,1.6649,2.4410
444554,1.6665,2.4426
444555,1.6641,2.4450
444556,1.6649,2.4619
444557,1.6657,2.4426
444558,1.6633,2.4426
444559,1.6657,2.4458
444560,1.6673,2.4442
444561,1.6657,2.4450
444562,1.6633,2.4458
444563,1.6649,2.4482
444564,1.6665,2.4426
444565,1.6641,2.4482
444566,1.6641,2.4458
444567,1.6657,2.4377
444568,1.6673,2.4418
444569,1.6665,2.4426
444570,1.6649,2.4393
444571,1.6641,2.4458
444572,1.6641,2.4458
444573,1.6633,2.4466
444574,1.6496,2.4426
444575,1.6649,2.4442
444576,1.6673,2.4450
444577,1.6673,2.4458
444578,1.6689,2.4450
444579,1.6633,2.4418
444580,1.6633,2.4458
444581,1.6673,2.4377
444582,1.6657,2.4474
444583,1.6673,2.4458
444584,1.6633,2.4498
444585,1.6689,2.4506
444586,1.6681,2.4474
444587,1.6641,2.4450
444588,1.6641,2.4442
444589,1.6673,2.4490
444590,1.6633,2.4458
444591,1.6649,2.4474
444592,1.6625,2.4442
444593,1.6657,2.4450
444594,1.6697,2.4458
444595,1.6633,2.4458
444596,1.6657,2.4458
444597,1.6641,2.4426
444598,1.6657,2.4579
444599,1.6665,2.4450
444600,1.6705,2.4458
444601,1.6649,2.4442
444602,1.6649,2.4418
444603,1.6641,2.4426
444604,1.6681,2.4450
444605,1.6673,2.4442
444606,1.6657,2.4369
444607,1.6633,2.4474
444608,1.6633,2.4450
444609,1.6665,2.4466
444610,1.6633,2.4450
444611,1.6577,2.4474
444612,1.6705,2.4466
444613,1.6633,2.4482
444614,1.6633,2.4385
444615,1.6851,2.4450
444616,1.6641,2.4474
444617,1.6673,2.4442
444618,1.6649,2.4458
444619,1.6633,2.4377
444620,1.6657,2.4426
444621,1.6649,2.4490
444622,1.6649,2.4466
444623,1.6657,2.4450
444624,1.6657,2.4490
444625,1.6689,2.4426
444626,1.6625,2.4458
444627,1.6657,2.4442
444628,1.6657,2.4490
444629,1.6488,2.4450
444630,1.6649,2.4426
444631,1.6617,2.4458
444632,1.6641,2.4329
444633,1.6641,2.4466
444634,1.6673,2.4458
444635,1.6657,2.4426
444636,1.6641,2.4345
444637,1.6633,2.4369
444638,1.6722,2.4458
444639,1.6681,2.4474
444640,1.6593,2.4458
444641,1.6657,2.4474
444642,1.6722,2.4466
444643,1.6633,2.4442
444644,1.6681,2.4458
444645,1.6673,2.4490
444646,1.6665,2.4458
444647,1.6633,2.4474
444648,1.6673,2.4474
444649,1.6649,2.4450
444650,1.6673,2.4514
444651,1.6633,2.4490
444652,1.6657,2.4482
444653,1.6722,2.4482
444654,1.6722,2.4482
444655,1.6633,2.4442
444656,1.6673,2.4426
444657,1.6681,2.4450
444658,1.6689,2.4482
444659,1.6657,2.4442
444660,1.6649,2.4482
444661,1.6681,2.4474
444662,1.6633,2.4410
444663,1.6641,2.4538
444664,1.6633,2.4426
444665,1.6633,2.4482
444666,1.6657,2.4458
444667,1.6641,2.4458
444668,1.6633,2.4474
444669,1.6641,2.4458
444670,1.6625,2.4442
444671,1.6681,2.4418
444672,1.6689,2.4410
444673,1.6657,2.4426
444674,1.6633,2.4458
444675,1.6665,2.4627
444676,1.6810,2.4442
444677,1.6681,2.4482
444678,1.6641,2.4482
444679,1.6633,2.4426
444680,1.6673,2.4442
444681,1.6665,2.4482
444682,1.6649,2.4458
444683,1.6649,2.4458
444684,1.6641,2.4522
444685,1.6560,2.4450
444686,1.6609,2.4458
444687,1.6649,2.4474
444688,1.6657,2.4426
444689,1.6649,2.4474
444690,1.6770,2.4490
444691,1.6665,2.4466
444692,1.6633,2.4426
444693,1.6649,2.4442
444694,1.6633,2.4450
444695,1.6673,2.4450
444696,1.6633,2.4482
444697,1.6641,2.4458
444698,1.6641,2.4450
444699,1.6633,2.4466
444700,1.6657,2.4426
444701,1.6633,2.4490
444702,1.6649,2.4482
444703,1.6633,2.4458
444704,1.6681,2.4458
444705,1.6657,2.4426
444706,1.6649,2.4410
444707,1.6689,2.4450
444708,1.6673,2.4426
444709,1.6657,2.4442
444710,1.6673,2.4450
444711,1.6633,2.4458
444712,1.6649,2.4458
444713,1.6722,2.4474
444714,1.6649,2.4474
444715,1.6681,2.4482
444716,1.6746,2.4490
444717,1.6689,2.4474
444718,1.6705,2.4450
444719,1.6657,2.4442
444720,1.6657,2.4466
444721,1.6649,2.4458
444722,1.6673,2.4401
444723,1.6689,2.4426
444724,1.6649,2.4289
444725,1.6673,2.4426
444726,1.6657,2.4200
444727,1.6705,2.4458
444728,1.6665,2.4490
444729,1.6673,2.4426
444730,1.6681,2.4458
444731,1.6673,2.4458
444732,1.6657,2.4442
444733,1.6641,2.4458
444734,1.6673,2.4329
444735,1.6641,2.4442
444736,1.6649,2.4474
444737,1.6649,2.4450
444738,1.6657,2.4474
444739,1.6633,2.4482
444740,1.6673,2.4474
444741,1.6681,2.4482
444742,1.6633,2.4458
444743,1.6633,2.4426
444744,1.6633,2.4466
444745,1.6657,2.4458
444746,1.6609,2.4482
444747,1.6673,2.4418
444748,1.6641,2.4466
444749,1.6552,2.4442
444750,1.6657,2.4345
444751,1.6673,2.4482
444752,1.6641,2.4458
444753,1.6641,2.4474
444754,1.6633,2.4458
444755,1.6560,2.4458
444756,1.6641,2.4474
444757,1.6649,2.4458
444758,1.6641,2.4482
444759,1.6665,2.4458
444760,1.6657,2.4410
444761,1.6609,2.4450
444762,1.6649,2.4482
444763,1.6681,2.4450
444764,1.6633,2.4490
444765,1.6633,2.4627
444766,1.6673,2.4482
444767,1.6633,2.4458
444768,1.6496,2.4474
444769,1.6601,2.4474
444770,1.6633,2.4458
444771,1.6834,2.4498
444772,1.6649,2.4450
444773,1.6641,2.4418
444774,1.6681,2.4466
444775,1.6649,2.4474
444776,1.6665,2.4458
444777,1.6641,2.4482
444778,1.6641,2.4482
444779,1.6705,2.4450
444780,1.6633,2.4490
444781,1.6673,2.4506
444782,1.6657,2.4474
444783,1.6714,2.4442
444784,1.6657,2.4385
444785,1.6633,2.4450
444786,1.6633,2.4450
444787,1.6649,2.4426
444788,1.6633,2.4466
444789,1.6657,2.4474
444790,1.6641,2.4385
444791,1.6649,2.4482
444792,1.6681,2.4458
444793,1.6689,2.4450
444794,1.6609,2.4571
444795,1.6649,2.4603
444796,1.6681,2.4466
444797,1.6714,2.4458
444798,1.6673,2.4426
444799,1.6649,2.4458
444800,1.6689,2.4458
444801,1.6649,2.4482
444802,1.6665,2.4490
444803,1.6641,2.4418
444804,1.6649,2.4393
444805,1.6633,2.4450
444806,1.6649,2.4426
444807,1.6480,2.4426
444808,1.6673,2.4458
444809,1.6641,2.4482
444810,1.6722,2.4474
444811,1.6657,2.4490
444812,1.6641,2.4474
444813,1.6657,2.4514
444814,1.6641,2.4482
444815,1.6649,2.4442
444816,1.6649,2.4426
444817,1.6641,2.4490
444818,1.6738,2.4458
444819,1.6681,2.4474
444820,1.6641,2.4474
444821,1.6657,2.4458
444822,1.6689,2.4297
444823,1.6681,2.4482
444824,1.6625,2.4522
444825,1.6641,2.4458
444826,1.6681,2.4474
444827,1.6681,2.4458
444828,1.6649,2.4458
444829,1.6657,2.4466
444830,1.6689,2.4498
444831,1.6633,2.4458
444832,1.6673,2.4450
444833,1.6633,2.4458
444834,1.6657,2.4490
444835,1.6633,2.4482
444836,1.6625,2.4426
444837,1.6657,2.4490
444838,1.6665,2.4490
444839,1.6705,2.4458
444840,1.6641,2.4458
444841,1.6689,2.4490
444842,1.6673,2.4547
444843,1.6657,2.4458
444844,1.6649,2.4498
444845,1.6552,2.4466
444846,1.6593,2.4506
444847,1.6633,2.4466
444848,1.6657,2.4410
444849,1.6641,2.4450
444850,1.6673,2.4410
444851,1.6617,2.4466
444852,1.6649,2.4458
444853,1.6641,2.4458
444854,1.6641,2.4458
444855,1.6641,2.4442
444856,1.6633,2.4426
444857,1.6705,2.4458
444858,1.6673,2.4442
444859,1.6657,2.4482
444860,1.6657,2.4450
444861,1.6673,2.4474
444862,1.6665,2.4458
444863,1.6641,2.4450
444864,1.6665,2.4506
444865,1.6641,2.4458
444866,1.6641,2.4474
444867,1.6641,2.4498
444868,1.6673,2.4490
444869,1.6657,2.4482
444870,1.6633,2.4426
444871,1.6649,2.4458
444872,1.6633,2.4474
444873,1.6633,2.4442
444874,1.6673,2.4458
444875,1.6633,2.4474
444876,1.6649,2.4450
444877,1.6867,2.4474
444878,1.6714,2.4466
444879,1.6689,2.4498
444880,1.6649,2.4474
444881,1.6673,2.4458
444882,1.6657,2.4474
444883,1.6649,2.4450
444884,1.6649,2.4474
444885,1.6633,2.4458
444886,1.6633,2.4474
444887,1.6641,2.4458
444888,1.6673,2.4442
444889,1.6633,2.4458
444890,1.6633,2.4450
444891,1.6641,2.4458
444892,1.6689,2.4458
444893,1.6681,2.4498
444894,1.6649,2.4377
444895,1.6633,2.4482
444896,1.6641,2.4506
444897,1.6681,2.4474
444898,1.6705,2.4458
444899,1.6657,2.4426
444900,1.6673,2.4466
444901,1.6617,2.4442
444902,1.6649,2.4442
444903,1.6649,2.4474
444904,1.6641,2.4490
444905,1.6657,2.4458
444906,1.6649,2.4450
444907,1.6673,2.4458
444908,1.6657,2.4587
444909,1.6625,2.4482
444910,1.6649,2.4474
444911,1.6641,2.4458
444912,1.6641,2.4716
444913,1.6633,2.4651
444914,1.6657,2.4418
444915,1.6649,2.4490
444916,1.6625,2.4547
444917,1.6633,2.4442
444918,1.6657,2.4482
444919,1.6649,2.4426
444920,1.6649,2.4442
444921,1.6657,2.4450
444922,1.6673,2.4426
444923,1.6657,2.4458
444924,1.6649,2.4450
444925,1.6657,2.4442
444926,1.6673,2.4482
444927,1.6657,2.4450
444928,1.6633,2.4474
444929,1.6633,2.4490
444930,1.6689,2.4442
444931,1.6657,2.4458
444932,1.6641,2.4474
444933,1.6681,2.4450
444934,1.6649,2.4466
444935,1.6681,2.4458
444936,1.6673,2.4474
444937,1.6681,2.4450
444938,1.6633,2.4458
444939,1.6657,2.4450
444940,1.6657,2.4458
444941,1.6689,2.4466
444942,1.6633,2.4474
444943,1.6657,2.4385
444944,1.6673,2.4490
444945,1.6641,2.4426
444946,1.6649,2.4474
444947,1.6649,2.4684
444948,1.6673,2.4458
444949,1.6673,2.4426
444950,1.6633,2.4442
444951,1.6649,2.4474
444952,1.6633,2.4450
444953,1.6633,2.4490
444954,1.6657,2.4474
444955,1.6681,2.4426
444956,1.6641,2.4442
444957,1.6641,2.4490
444958,1.6641,2.4474
444959,1.6633,2.4426
444960,1.6649,2.4538
444961,1.6762,2.4442
444962,1.6633,2.4450
444963,1.6633,2.4450
444964,1.6633,2.4474
444965,1.6633,2.4482
444966,1.6641,2.4466
444967,1.6641,2.4450
444968,1.6722,2.4458
444969,1.6665,2.4611
444970,1.6657,2.4369
444971,1.6657,2.4530
444972,1.6633,2.4458
444973,1.6633,2.4442
444974,1.6641,2.4458
444975,1.6657,2.4410
444976,1.6641,2.4474
444977,1.6633,2.4498
444978,1.6665,2.4426
444979,1.6641,2.4450
444980,1.6657,2.4458
444981,1.6689,2.4482
444982,1.6657,2.4490
444983,1.6633,2.4458
444984,1.6641,2.4490
444985,1.6649,2.4426
444986,1.6649,2.4458
444987,1.6657,2.4474
444988,1.6649,2.4385
444989,1.6633,2.4418
444990,1.6633,2.4450
444991,1.6697,2.4474
444992,1.6633,2.4458
444993,1.6633,2.4458
444994,1.6641,2.4442
444995,1.6649,2.4466
444996,1.6738,2.4426
444997,1.6689,2.4482
444998,1.6617,2.4466
444999,1.6657,2.4466
445000,1.6633,2.4458
445001,1.6657,2.4482
445002,1.6657,2.4401
445003,1.6641,2.4426
445004,1.6657,2.4555
445005,1.6633,2.4474
445006,1.6657,2.4555
445007,1.6633,2.4442
445008,1.6633,2.4450
445009,1.6633,2.4450
445010,1.6633,2.4458
445011,1.6633,2.4458
445012,1.6649,2.4490
445013,1.6633,2.4474
445014,1.6649,2.4458
445015,1.6641,2.4458
445016,1.6633,2.4474
445017,1.6625,2.4490
445018,1.6641,2.4450
445019,1.6633,2.4410
445020,1.6641,2.4506
445021,1.6633,2.4474
445022,1.6649,2.4450
445023,1.6633,2.4506
445024,1.6641,2.4458
445025,1.6714,2.4498
445026,1.6641,2.4442
445027,1.6657,2.4458
445028,1.6722,2.4490
445029,1.6633,2.4482
445030,1.6633,2.4458
445031,1.6649,2.4474
445032,1.6657,2.4627
445033,1.6633,2.4458
445034,1.6633,2.4458
445035,1.6649,2.4490
445036,1.6673,2.4466
445037,1.6681,2.4474
445038,1.6697,2.4490
445039,1.6673,2.4450
445040,1.6609,2.4442
445041,1.6633,2.4482
445042,1.6641,2.4418
445043,1.6673,2.4426
445044,1.6633,2.4490
445045,1.6673,2.4442
445046,1.6633,2.4498
445047,1.6673,2.4482
445048,1.6633,2.4474
445049,1.6633,2.4458
445050,1.6641,2.4426
445051,1.6657,2.4619
445052,1.6673,2.4442
445053,1.6681,2.4490
445054,1.6633,2.4474
445055,1.6633,2.4474
445056,1.6633,2.4458
445057,1.6633,2.4490
445058,1.6633,2.4538
445059,1.6633,2.4458
445060,1.6657,2.4595
445061,1.6665,2.4555
445062,1.6641,2.4474
445063,1.6633,2.4514
445064,1.6681,2.4474
445065,1.6673,2.4458
445066,1.6633,2.4442
445067,1.6633,2.4482
445068,1.6633,2.4458
445069,1.6633,2.4442
445070,1.6649,2.4450
445071,1.6657,2.4490
445072,1.6665,2.4458
445073,1.6665,2.4474
445074,1.6633,2.4482
445075,1.6714,2.4458
445076,1.6633,2.4498
445077,1.6681,2.4466
445078,1.6673,2.4458
445079,1.6633,2.4458
445080,1.6641,2.4458
445081,1.6641,2.4442
445082,1.6649,2.4474
445083,1.6681,2.4474
445084,1.6649,2.4619
445085,1.6641,2.4450
445086,1.6641,2.4482
445087,1.6649,2.4418
445088,1.6641,2.4426
445089,1.6649,2.4474
445090,1.6673,2.4490
445091,1.6673,2.4385
445092,1.6633,2.4482
445093,1.6673,2.4482
445094,1.6649,2.4458
445095,1.6633,2.4450
445096,1.6649,2.4490
445097,1.6673,2.4450
445098,1.6722,2.4281
445099,1.6673,2.4482
445100,1.6633,2.4426
445101,1.6633,2.4474
445102,1.6641,2.4426
445103,1.6657,2.4474
445104,1.6665,2.4482
445105,1.6633,2.4482
445106,1.6633,2.4450
445107,1.6657,2.4490
445108,1.6641,2.4490
445109,1.6649,2.4442
445110,1.6649,2.4466
445111,1.6649,2.4458
445112,1.6633,2.4474
445113,1.6633,2.4442
445114,1.6649,2.4458
445115,1.6649,2.4490
445116,1.6673,2.4482
445117,1.6665,2.4450
445118,1.6496,2.4490
445119,1.6633,2.4442
445120,1.6641,2.4514
445121,1.6480,2.4450
445122,1.6633,2.4482
445123,1.6641,2.4458
445124,1.6673,2.4458
445125,1.6657,2.4418
445126,1.6746,2.4450
445127,1.6432,2.4458
445128,1.6399,2.4458
445129,1.6633,2.4474
445130,1.6738,2.4474
445131,1.6657,2.4474
445132,1.6689,2.4458
445133,1.6657,2.4474
445134,1.6649,2.4450
445135,1.6609,2.4490
445136,1.6633,2.4450
445137,1.6633,2.4458
445138,1.6649,2.4498
445139,1.6689,2.4426
445140,1.6641,2.4538
445141,1.6496,2.4458
445142,1.6617,2.4450
445143,1.6633,2.4426
445144,1.6633,2.4490
445145,1.6649,2.4482
445146,1.6633,2.4482
445147,1.6705,2.4450
445148,1.6432,2.4522
445149,1.6697,2.4474
445150,1.6633,2.4458
445151,1.6641,2.4458
445152,1.6641,2.4490
445153,1.6641,2.4426
445154,1.6649,2.4474
445155,1.6633,2.4474
445156,1.6738,2.4458
445157,1.6657,2.4426
445158,1.6657,2.4450
445159,1.6633,2.4442
445160,1.6641,2.4418
445161,1.6657,2.4442
445162,1.6641,2.4466
445163,1.6633,2.4490
445164,1.6673,2.4490
445165,1.6673,2.4369
445166,1.6714,2.4361
445167,1.6665,2.4458
445168,1.6738,2.4474
445169,1.6633,2.4466
445170,1.6665,2.4385
445171,1.6625,2.4490
445172,1.6681,2.4426
445173,1.6633,2.4482
445174,1.6641,2.4458
445175,1.6633,2.4458
445176,1.6657,2.4466
445177,1.6673,2.4474
445178,1.6633,2.4482
445179,1.6673,2.4410
445180,1.6641,2.4458
445181,1.6633,2.4482
445182,1.6649,2.4474
445183,1.6641,2.4474
445184,1.6649,2.4466
445185,1.6641,2.4474
445186,1.6649,2.4482
445187,1.6625,2.4450
445188,1.6633,2.4490
445189,1.6657,2.4458
445190,1.6714,2.4458
445191,1.6657,2.4426
445192,1.6633,2.4482
445193,1.6633,2.4482
445194,1.6633,2.4490
445195,1.6673,2.4474
445196,1.6641,2.4458
445197,1.6633,2.4466
445198,1.6633,2.4482
445199,1.6673,2.4458
445200,1.6633,2.4458
445201,1.6633,2.4458
445202,1.6633,2.4450
445203,1.6633,2.4466
445204,1.6649,2.4474
445205,1.6633,2.4466
445206,1.6633,2.4450
445207,1.6633,2.4458
445208,1.6657,2.4716
445209,1.6657,2.4442
445210,1.6633,2.4216
445211,1.6649,2.4474
445212,1.6673,2.4466
445213,1.6633,2.4490
445214,1.6641,2.4321
445215,1.6641,2.4490
445216,1.6633,2.4450
445217,1.6560,2.4442
445218,1.6681,2.4458
445219,1.6633,2.4466
                      446449,1.7253,3.1848
446450,1.7253,3.1856
446451,1.7237,3.1840
446452,1.7229,3.1856
446453,1.7270,3.1856
446454,1.7253,3.1848
446455,1.7253,3.1920
446456,1.7189,3.1807
446457,1.7278,3.1864
446458,1.7197,3.1775
446459,1.7318,3.1856
446460,1.7189,3.1912
446461,1.7157,3.1952
446462,1.7237,3.1960
446463,1.7245,3.1928
446464,1.7205,3.2057
446465,1.7221,3.1968
446466,1.7205,3.2009
446467,1.7237,3.1985
446468,1.7221,3.1968
446469,1.7189,3.1968
446470,1.7237,3.2001
446471,1.7181,3.2033
446472,1.7189,3.2097
446473,1.7189,3.2057
446474,1.7173,3.2033
446475,1.7181,3.2533
446476,1.7374,3.2154
446477,1.7253,3.2130
446478,1.7173,3.2130
446479,1.7205,3.2178
446480,1.7205,3.2484
446481,1.7245,3.2267
446482,1.7229,3.2210
446483,1.7173,3.2259
446484,1.7262,3.2226
446485,1.7173,3.2234
446486,1.7229,3.2218
446487,1.7173,3.2283
446488,1.7278,3.2226
446489,1.7237,3.2267
446490,1.7270,3.2331
446491,1.7318,3.2283
446492,1.7221,3.2323
446493,1.7205,3.2444
446494,1.7229,3.2251
446495,1.7278,3.2347
446496,1.7237,3.2323
446497,1.7173,3.2371
446498,1.7253,3.2605
446499,1.7253,3.2468
446500,1.7286,3.2444
446501,1.7302,3.2436
446502,1.7205,3.2484
446503,1.7294,3.2476
446504,1.7205,3.2484
446505,1.7270,3.2162
446506,1.7270,3.2484
446507,1.7245,3.2484
446508,1.7318,3.2452
446509,1.7278,3.2541
446510,1.7262,3.2444
446511,1.7229,3.2565
446512,1.7270,3.2484
446513,1.7270,3.2500
446514,1.7262,3.2541
446515,1.7294,3.2533
446516,1.7237,3.2549
446517,1.7270,3.2581
446518,1.7286,3.2613
446519,1.7262,3.2589
446520,1.7270,3.2589
446521,1.7270,3.2621
446522,1.7334,3.2637
446523,1.7278,3.2597
446524,1.7270,3.2581
446525,1.7205,3.2573
446526,1.7237,3.2621
446527,1.7286,3.3000
446528,1.7294,3.2581
446529,1.7253,3.2597
446530,1.7286,3.2621
446531,1.7262,3.2436
446532,1.7326,3.2621
446533,1.7262,3.2662
446534,1.7270,3.2645
446535,1.7318,3.2468
446536,1.7253,3.2621
446537,1.7278,3.2662
446538,1.7302,3.2629
446539,1.7278,3.2645
446540,1.7229,3.2694
446541,1.7253,3.2629
446542,1.7302,3.2645
446543,1.7262,3.2645
446544,1.7253,3.2621
446545,1.7294,3.2694
446546,1.7318,3.2629
446547,1.7270,3.2637
446548,1.7133,3.2629
446549,1.7286,3.2621
446550,1.7278,3.2621
446551,1.7366,3.2581
446552,1.7350,3.2758
446553,1.7270,3.2629
446554,1.7221,3.2613
446555,1.7044,3.2613
446556,1.7253,3.2621
446557,1.7253,3.2613
446558,1.7302,3.3000
446559,1.7294,3.2605
446560,1.7253,3.2621
446561,1.7302,3.2621
446562,1.7278,3.2565
446563,1.7294,3.2621
446564,1.7270,3.2637
446565,1.7270,3.2637
446566,1.7262,3.2645
446567,1.7270,3.2621
446568,1.7310,3.2581
446569,1.7278,3.2621
446570,1.7245,3.2621
446571,1.7270,3.2758
446572,1.7084,3.2702
446573,1.7278,3.2629
446574,1.7286,3.2694
446575,1.7253,3.2605
446576,1.7270,3.2621
446577,1.7286,3.2621
446578,1.7302,3.2613
446579,1.7270,3.2621
446580,1.7302,3.2621
446581,1.7270,3.2629
446582,1.7326,3.2710
446583,1.7278,3.2613
446584,1.7253,3.2573
446585,1.7278,3.2589
446586,1.7326,3.2605
446587,1.7318,3.2637
446588,1.7302,3.2621
446589,1.7253,3.2710
446590,1.7286,3.2452
446591,1.7302,3.2541
446592,1.7286,3.2573
446593,1.7262,3.2549
446594,1.7294,3.2541
446595,1.7278,3.2291
446596,1.7262,3.2549
446597,1.7278,3.2573
446598,1.7245,3.2541
446599,1.7262,3.2516
446600,1.7205,3.2484
446601,1.7205,3.2508
446602,1.7302,3.2516
446603,1.7270,3.2444
446604,1.7253,3.2484
446605,1.7334,3.2476
446606,1.7270,3.2420
446607,1.7262,3.2388
446608,1.7270,3.2678
446609,1.7253,3.2363
446610,1.7262,3.2371
446611,1.7350,3.2355
446612,1.7253,3.2323
446613,1.7237,3.2323
446614,1.7262,3.2347
446615,1.7286,3.2259
446616,1.7278,3.2283
446617,1.7310,3.2234
446618,1.7253,3.2178
446619,1.7253,3.2162
446620,1.7189,3.2178
446621,1.7237,3.2138
446622,1.7237,3.2122
446623,1.7253,3.2130
446624,1.7229,3.2065
446625,1.7253,3.2073
446626,1.7253,3.1848
446627,1.7197,3.2041
446628,1.7229,3.1920
446629,1.7229,3.1993
446630,1.7229,3.1904
446631,1.7205,3.1856
446632,1.7221,3.1848
446633,1.7237,3.1791
446634,1.7165,3.1759
446635,1.7189,3.1775
446636,1.7221,3.1630
446637,1.7205,3.1501
446638,1.7205,3.1445
446639,1.7149,3.1421
446640,1.7221,3.1332
446641,1.7060,3.1163
446642,1.7262,3.1074
446643,1.7189,3.1001
446644,1.7149,3.0937
446645,1.7197,3.0800
446646,1.7173,3.0599
446647,1.7205,3.0510
446648,1.7149,3.0325
446649,1.7173,3.0099
446650,1.7125,2.9897
446651,1.7157,2.9785
446652,1.7149,2.9543
446653,1.7052,2.9317
446654,1.7060,2.9140
446655,1.7108,2.9067
446656,1.7125,2.9011
446657,1.7052,2.9051
446658,1.7141,2.9156
446659,1.7052,2.9156
446660,1.7044,2.9245
446661,1.7068,2.9390
446662,1.7060,2.9406
446663,1.7076,2.9253
446664,1.7044,2.9559
446665,1.7125,2.9696
446666,1.7028,2.9728
446667,1.7092,2.9841
446668,1.7044,2.9946
446669,1.7076,3.0075
446670,1.7165,3.0171
446671,1.7100,3.0300
446672,1.7036,3.0325
446673,1.7092,3.0494
446674,1.7076,3.0518
446675,1.7116,3.0607
446676,1.7108,3.0703
446677,1.7125,3.0808
446678,1.7004,3.0864
446679,1.7092,3.1026
446680,1.7165,3.1074
446681,1.7157,3.1074
446682,1.7125,3.1227
446683,1.7141,3.1292
446684,1.7237,3.1332
446685,1.7197,3.1388
446686,1.7157,3.1719
446687,1.7173,3.1606
446688,1.7262,3.1630
446689,1.7149,3.1848
446690,1.7221,3.1832
446691,1.7245,3.1880
446692,1.7229,3.1856
446693,1.7302,3.1977
446694,1.7294,3.1952
446695,1.7334,3.1977
446696,1.7318,3.1848
446697,1.7302,3.2242
446698,1.7302,3.2162
446699,1.7334,3.2323
446700,1.7358,3.2363
446701,1.7423,3.2363
446702,1.7358,3.2468
446703,1.7358,3.2388
446704,1.7382,3.2492
446705,1.7390,3.2831
446706,1.7407,3.2420
446707,1.7390,3.2581
446708,1.7399,3.2637
446709,1.7407,3.2710
446710,1.7407,3.2815
446711,1.7560,3.2879
446712,1.7455,3.2887
446713,1.7544,3.2968
446714,1.7374,3.2992
446715,1.7455,3.3000
446716,1.7382,3.3000
446717,1.7423,3.3000
446718,1.7390,3.3000
446719,1.7423,3.3000
446720,1.7415,3.3000
446721,1.7527,3.3000
446722,1.7463,3.3000
446723,1.7431,3.3000
446724,1.7399,3.3000
446725,1.7431,3.3000
446726,1.7487,3.3000
446727,1.7455,3.3000
446728,1.7350,3.3000
446729,1.7407,3.3000
446730,1.7407,3.3000
446731,1.7407,3.3000
446732,1.7407,3.3000
446733,1.7447,3.3000
446734,1.7423,3.3000
446735,1.7455,3.3000
446736,1.7455,3.3000
446737,1.7423,3.3000
446738,1.7407,3.3000
446739,1.7463,3.3000
446740,1.7431,3.3000
446741,1.7399,3.3000
446742,1.7407,3.3000
446743,1.7431,3.3000
446744,1.7407,3.3000
446745,1.7399,3.3000
446746,1.7439,3.3000
446747,1.7423,3.3000
446748,1.7366,3.3000
446749,1.7390,3.3000
446750,1.7399,3.3000
446751,1.7407,3.3000
446752,1.7407,3.3000
446753,1.7366,3.3000
446754,1.7390,3.3000
446755,1.7423,3.3000
446756,1.7407,3.3000
446757,1.7374,3.3000
446758,1.7407,3.3000
446759,1.7390,3.3000
446760,1.7382,3.3000
446761,1.7366,3.3000
446762,1.7326,3.3000
446763,1.7350,3.3000
446764,1.7350,3.3000
446765,1.7326,3.3000
446766,1.7318,3.3000
446767,1.7382,3.3000
446768,1.7294,3.3000
446769,1.7318,3.3000
446770,1.7245,3.3000
446771,1.7399,3.3000
446772,1.7149,3.3000
446773,1.7334,3.3000
446774,1.7302,3.3000
446775,1.7334,3.3000
446776,1.7326,3.3000
446777,1.7286,3.3000
446778,1.7366,3.3000
446779,1.7286,3.3000
446780,1.7310,3.3000
446781,1.7294,3.3000
446782,1.7237,3.3000
446783,1.7326,3.3000
446784,1.7294,3.3000
446785,1.7270,3.3000
446786,1.7286,3.3000
446787,1.7262,3.3000
446788,1.7294,3.3000
446789,1.7270,3.3000
446790,1.7237,3.3000
446791,1.7237,3.3000
446792,1.7407,3.3000
446793,1.7189,3.3000
446794,1.7358,3.3000
446795,1.7237,3.3000
446796,1.7205,3.3000
446797,1.7294,3.3000
446798,1.7245,3.3000
446799,1.7173,3.3000
446800,1.7189,3.3000
446801,1.7286,3.3000
446802,1.7205,3.3000
446803,1.7141,3.3000
446804,1.7229,3.3000
446805,1.7205,3.3000
446806,1.7205,3.3000
446807,1.7173,3.3000
446808,1.7221,3.3000
446809,1.7205,3.3000
446810,1.7205,3.3000
446811,1.7189,3.3000
446812,1.7157,3.3000
446813,1.7149,3.3000
446814,1.7253,3.3000
446815,1.7245,3.3000
446816,1.7181,3.3000
446817,1.7165,3.3000
446818,1.7407,3.3000
446819,1.7173,3.3000
446820,1.7149,3.3000
446821,1.7173,3.3000
446822,1.7181,3.3000
446823,1.7149,3.3000
446824,1.7189,3.3000
446825,1.7165,3.3000
446826,1.7165,3.3000
446827,1.7221,3.3000
446828,1.7286,3.3000
446829,1.7149,3.3000
446830,1.7237,3.3000
446831,1.7165,3.3000
446832,1.7149,3.3000
446833,1.7149,3.3000
446834,1.7189,3.3000
446835,1.7165,3.3000
446836,1.7197,3.3000
446837,1.7407,3.3000
446838,1.7173,3.3000
446839,1.7157,3.3000
446840,1.7141,3.3000
446841,1.7157,3.3000
446842,1.7141,3.3000
446843,1.7165,3.3000
446844,1.7197,3.3000
446845,1.7133,3.3000
446846,1.7149,3.3000
446847,1.7181,3.3000
446848,1.7149,3.3000
446849,1.7149,3.3000
446850,1.6996,3.3000
446851,1.7133,3.3000
446852,1.7149,3.3000
446853,1.7149,3.3000
446854,1.7108,3.3000
446855,1.7165,3.3000
446856,1.7149,3.3000
446857,1.7020,3.3000
446858,1.7173,3.3000
446859,1.7149,3.3000
446860,1.7157,3.3000
446861,1.7149,3.3000
446862,1.7149,3.3000
446863,1.7108,3.3000
446864,1.7020,3.3000
446865,1.7092,3.3000
446866,1.7157,3.3000
446867,1.7141,3.3000
446868,1.7149,3.3000
446869,1.7149,3.3000
446870,1.7157,3.3000
446871,1.7108,3.3000
446872,1.7060,3.3000
446873,1.7149,3.3000
446874,1.7149,3.3000
446875,1.7141,3.3000
446876,1.7157,3.3000
446877,1.7157,3.3000
446878,1.7149,3.3000
446879,1.7133,3.3000
446880,1.7133,3.3000
446881,1.7149,3.3000
446882,1.7157,3.3000
446883,1.7197,3.3000
446884,1.7141,3.3000
446885,1.7149,3.3000
446886,1.7189,3.3000
446887,1.7108,3.3000
446888,1.7133,3.3000
446889,1.7125,3.3000
446890,1.7092,3.3000
446891,1.7125,3.3000
446892,1.7157,3.3000
446893,1.7149,3.3000
446894,1.7125,3.3000
446895,1.7149,3.3000
446896,1.7141,3.3000
446897,1.7149,3.3000
446898,1.7020,3.3000
446899,1.7092,3.3000
446900,1.7149,3.3000
446901,1.7125,3.3000
446902,1.7076,3.3000
446903,1.7149,3.3000
446904,1.7125,3.3000
446905,1.7108,3.3000
446906,1.7173,3.3000
446907,1.7125,3.3000
446908,1.7181,3.3000
446909,1.7108,3.3000
446910,1.7108,3.3000
446911,1.7278,3.3000
446912,1.7060,3.3000
446913,1.7108,3.3000
446914,1.7125,3.3000
446915,1.7133,3.3000
446916,1.7076,3.3000
446917,1.7116,3.3000
446918,1.7028,3.3000
446919,1.7100,3.3000
446920,1.7076,3.3000
446921,1.7076,3.3000
446922,1.7125,3.3000
446923,1.7149,3.3000
446924,1.7133,3.3000
446925,1.7068,3.3000
446926,1.7052,3.3000
446927,1.7116,3.3000
446928,1.7108,3.3000
446929,1.7076,3.3000
446930,1.7125,3.3000
446931,1.7076,3.3000
446932,1.7076,3.3000
446933,1.7068,3.3000
446934,1.7060,3.3000
446935,1.7036,3.3000
446936,1.7020,3.3000
446937,1.7060,3.3000
446938,1.7068,3.3000
446939,1.7141,3.3000
446940,1.7068,3.3000
446941,1.7108,3.3000
446942,1.7060,3.3000
446943,1.7060,3.3000
446944,1.7044,3.3000
446945,1.7068,3.3000
446946,1.7076,3.3000
446947,1.7044,3.3000
446948,1.7092,3.3000
446949,1.7076,3.3000
446950,1.7060,3.3000
446951,1.7044,3.3000
446952,1.7092,3.3000
446953,1.7036,3.3000
446954,1.7044,3.3000
446955,1.7108,3.3000
446956,1.7044,3.3000
446957,1.7052,3.3000
446958,1.7044,3.3000
446959,1.7028,3.3000
446960,1.7060,3.3000
446961,1.7173,3.3000
446962,1.7020,3.3000
446963,1.7012,3.3000
446964,1.7036,3.3000
446965,1.7108,3.3000
446966,1.7068,3.3000
446967,1.7028,3.3000
446968,1.7076,3.3000
446969,1.7036,3.3000
446970,1.7044,3.3000
446971,1.7036,3.3000
446972,1.7044,3.3000
446973,1.7060,3.3000
446974,1.7108,3.3000
446975,1.7028,3.3000
446976,1.7076,3.3000
446977,1.7004,3.3000
446978,1.7068,3.3000
446979,1.7020,3.3000
446980,1.7036,3.3000
446981,1.7076,3.3000
446982,1.7020,3.3000
446983,1.7020,3.3000
446984,1.7028,3.3000
446985,1.7004,3.3000
446986,1.7060,3.3000
446987,1.7004,3.3000
446988,1.7012,3.3000
446989,1.7004,3.3000
446990,1.7028,3.3000
446991,1.7020,3.3000
446992,1.7020,3.3000
446993,1.7020,3.3000
446994,1.7020,3.3000
446995,1.7004,3.3000
446996,1.7020,3.3000
446997,1.7036,3.3000
446998,1.7020,3.3000
446999,1.7253,3.3000
447000,1.7044,3.3000
447001,1.7004,3.3000
447002,1.7012,3.3000
447003,1.6996,3.3000
447004,1.7004,3.3000
447005,1.7004,3.3000
447006,1.7020,3.3000
447007,1.6979,3.3000
447008,1.6971,3.3000
447009,1.6996,3.3000
447010,1.7020,3.3000
447011,1.7012,3.3000
447012,1.7012,3.3000
447013,1.7149,3.3000
447014,1.7036,3.3000
447015,1.6988,3.3000
447016,1.6947,3.3000
447017,1.6963,3.3000
447018,1.7012,3.3000
447019,1.7020,3.3000
447020,1.7028,3.3000
447021,1.6979,3.3000
447022,1.7092,3.3000
447023,1.7020,3.3000
447024,1.7020,3.3000
447025,1.7028,3.3000
447026,1.7012,3.3000
447027,1.7020,3.3000
447028,1.7012,3.3000
447029,1.7012,3.3000
447030,1.6939,3.3000
447031,1.6979,3.3000
447032,1.7020,3.3000
447033,1.7044,3.3000
447034,1.6996,3.3000
447035,1.6979,3.3000
447036,1.7012,3.3000
447037,1.7020,3.3000
447038,1.7012,3.3000
447039,1.6931,3.3000
447040,1.6996,3.3000
447041,1.6996,3.3000
447042,1.7004,3.3000
447043,1.6996,3.3000
447044,1.7020,3.3000
447045,1.6988,3.3000
447046,1.6988,3.3000
447047,1.6996,3.3000
447048,1.6963,3.3000
447049,1.7020,3.3000
447050,1.7141,3.3000
447051,1.7012,3.3000
447052,1.7012,3.3000
447053,1.7004,3.3000
447054,1.7020,3.3000
447055,1.6971,3.3000
447056,1.7004,3.3000
447057,1.7012,3.3000
447058,1.7004,3.3000
447059,1.6963,3.3000
447060,1.7020,3.3000
447061,1.7020,3.3000
447062,1.6971,3.3000
447063,1.7020,3.3000
447064,1.6979,3.3000
447065,1.6963,3.3000
447066,1.6947,3.3000
447067,1.7012,3.3000
447068,1.7028,3.3000
447069,1.7020,3.3000
447070,1.7020,3.3000
447071,1.6979,3.3000
447072,1.7076,3.3000
447073,1.7020,3.3000
447074,1.6971,3.3000
447075,1.7020,3.3000
447076,1.6963,3.3000
447077,1.7020,3.3000
447078,1.7004,3.3000
447079,1.7020,3.3000
447080,1.6996,3.3000
447081,1.7012,3.3000
447082,1.6979,3.3000
447083,1.6939,3.3000
447084,1.6979,3.3000
447085,1.7020,3.3000
447086,1.6971,3.3000
447087,1.7012,3.3000
447088,1.6947,3.3000
447089,1.7012,3.3000
447090,1.7100,3.3000
447091,1.6979,3.3000
447092,1.6947,3.3000
447093,1.7012,3.3000
447094,1.6971,3.3000
447095,1.6971,3.3000
447096,1.7020,3.3000
447097,1.6899,3.3000
447098,1.7020,3.3000
447099,1.6915,3.3000
447100,1.6963,3.3000
447101,1.6963,3.3000
447102,1.6923,3.3000
447103,1.7004,3.3000
447104,1.6979,3.3000
447105,1.6955,3.3000
447106,1.6996,3.3000
447107,1.6971,3.3000
447108,1.7012,3.3000
447109,1.6996,3.3000
447110,1.6996,3.3000
447111,1.6996,3.3000
447112,1.6931,3.3000
447113,1.6947,3.3000
447114,1.7012,3.3000
447115,1.7028,3.3000
447116,1.6899,3.3000
447117,1.6996,3.3000
447118,1.6947,3.3000
447119,1.6947,3.3000
447120,1.6979,3.3000
447121,1.6915,3.3000
447122,1.6907,3.3000
447123,1.6963,3.3000
447124,1.6915,3.3000
447125,1.6931,3.3000
447126,1.6988,3.3000
447127,1.7004,3.3000
447128,1.6971,3.3000
447129,1.7004,3.3000
447130,1.7012,3.3000
447131,1.7004,3.3000
447132,1.6939,3.3000
447133,1.6883,3.3000
447134,1.7004,3.3000
447135,1.6939,3.3000
447136,1.6939,3.3000
447137,1.6931,3.3000
447138,1.6891,3.3000
447139,1.6899,3.3000
447140,1.6778,3.3000
447141,1.6996,3.3000
447142,1.6979,3.3000
447143,1.7004,3.3000
447144,1.6947,3.3000
447145,1.6963,3.3000
447146,1.6931,3.3000
447147,1.6947,3.3000
447148,1.6947,3.3000
447149,1.6971,3.3000
447150,1.6931,3.3000
447151,1.7004,3.3000
447152,1.6915,3.3000
447153,1.6899,3.3000
447154,1.6971,3.3000
447155,1.6931,3.3000
447156,1.6907,3.3000
447157,1.6915,3.3000
447158,1.6915,3.3000
447159,1.6996,3.3000
447160,1.6979,3.3000
447161,1.6907,3.3000
447162,1.6947,3.3000
447163,1.6963,3.3000
447164,1.6931,3.3000
447165,1.6947,3.3000
447166,1.6988,3.3000
447167,1.6947,3.3000
447168,1.6947,3.3000
447169,1.6963,3.3000
447170,1.6939,3.3000
447171,1.6899,3.3000
447172,1.6931,3.3000
447173,1.7108,3.3000
447174,1.6915,3.3000
447175,1.6907,3.3000
447176,1.6931,3.3000
447177,1.6931,3.3000
447178,1.6971,3.3000
447179,1.6907,3.3000
447180,1.6979,3.3000
447181,1.6947,3.3000
447182,1.6915,3.3000
447183,1.6931,3.3000
447184,1.6899,3.3000
447185,1.6923,3.3000
447186,1.6939,3.3000
447187,1.6891,3.3000
447188,1.6939,3.3000
447189,1.6947,3.3000
447190,1.6931,3.3000
447191,1.6923,3.3000
447192,1.6923,3.3000
447193,1.6931,3.3000
447194,1.6963,3.3000
447195,1.6915,3.3000
447196,1.6955,3.3000
447197,1.6939,3.3000
447198,1.6971,3.3000
447199,1.6915,3.3000
447200,1.6947,3.3000
447201,1.6899,3.3000
447202,1.6923,3.3000
447203,1.6842,3.3000
447204,1.6907,3.3000
447205,1.6947,3.3000
447206,1.6979,3.3000
447207,1.6891,3.3000
447208,1.6923,3.3000
447209,1.6891,3.3000
447210,1.6923,3.3000
447211,1.6947,3.3000
447212,1.6891,3.3000
447213,1.6907,3.3000
447214,1.6770,3.3000
447215,1.6907,3.3000
447216,1.6891,3.3000
447217,1.6891,3.3000
447218,1.6891,3.3000
447219,1.6931,3.3000
447220,1.6891,3.3000
447221,1.6907,3.3000
447222,1.6923,3.3000
447223,1.6899,3.3000
447224,1.6907,3.3000
447225,1.6883,3.3000
447226,1.6931,3.3000
447227,1.6923,3.3000
447228,1.6907,3.3000
447229,1.6907,3.3000
447230,1.6907,3.3000
447231,1.6907,3.3000
447232,1.6883,3.3000
447233,1.6915,3.3000
447234,1.6875,3.3000
447235,1.6907,3.3000
447236,1.6891,3.3000
447237,1.6915,3.3000
447238,1.6851,3.3000
447239,1.6899,3.3000
447240,1.6931,3.3000
447241,1.6891,3.3000
447242,1.6891,3.3000
447243,1.6891,3.3000
447244,1.6915,3.3000
447245,1.6867,3.3000
447246,1.6891,3.3000
447247,1.6851,3.3000
447248,1.6867,3.3000
447249,1.6891,3.3000
447250,1.6875,3.3000
447251,1.6867,3.3000
447252,1.6875,3.3000
447253,1.6883,3.3000
447254,1.6883,3.3000
447255,1.6891,3.3000
447256,1.6867,3.3000
447257,1.6891,3.3000
447258,1.6859,3.3000
447259,1.6762,3.3000
447260,1.6931,3.3000
447261,1.6810,3.3000
447262,1.6891,3.3000
447263,1.6875,3.3000
447264,1.6851,3.3000
447265,1.6802,3.3000
447266,1.6867,3.3000
447267,1.6834,3.3000
447268,1.6851,3.3000
447269,1.6923,3.3000
447270,1.6802,3.3000
447271,1.6794,3.3000
447272,1.6786,3.3000
447273,1.6867,3.3000
447274,1.6867,3.3000
447275,1.6778,3.3000
447276,1.6818,3.3000
447277,1.6915,3.3000
447278,1.6786,3.3000
447279,1.6834,3.3000
447280,1.6802,3.3000
447281,1.6810,3.3000
447282,1.6794,3.3000
447283,1.6842,3.3000
447284,1.6738,3.3000
447285,1.6818,3.3000
447286,1.6560,3.3000
447287,1.6786,3.3000
447288,1.6851,3.3000
447289,1.6738,3.3000
447290,1.6802,3.3000
447291,1.6762,3.3000
447292,1.6770,3.3000
447293,1.6842,3.3000
447294,1.6842,3.3000
447295,1.6730,3.3000
447296,1.6834,3.3000
447297,1.6762,3.3000
447298,1.6722,3.3000
447299,1.6754,3.3000
447300,1.6963,3.3000
447301,1.6786,3.3000
447302,1.6722,3.3000
447303,1.6778,3.3000
447304,1.6705,3.3000
447305,1.6762,3.3000
447306,1.6738,3.3000
447307,1.6859,3.3000
447308,1.6762,3.3000
447309,1.6738,3.3000
447310,1.6770,3.3000
447311,1.6786,3.3000
447312,1.6778,3.3000
447313,1.6746,3.3000
447314,1.6714,3.3000
447315,1.6754,3.3000
447316,1.6754,3.3000
447317,1.6754,3.3000
447318,1.6722,3.3000
447319,1.6714,3.3000
447320,1.6689,3.3000
447321,1.7020,3.3000
447322,1.6738,3.3000
447323,1.6714,3.3000
447324,1.6746,3.3000
447325,1.6689,3.3000
447326,1.6802,3.3000
447327,1.6754,3.3000
447328,1.6657,3.3000
447329,1.6673,3.3000
447330,1.6722,3.3000
447331,1.6697,3.3000
447332,1.6681,3.3000
447333,1.6714,3.3000
447334,1.6681,3.3000
447335,1.6657,3.3000
447336,1.6673,3.3000
447337,1.6689,3.3000
447338,1.6722,3.3000
447339,1.6673,3.3000
447340,1.6681,3.3000
447341,1.6722,3.3000
447342,1.6722,3.3000
447343,1.6641,3.3000
447344,1.6665,3.3000
447345,1.6649,3.3000
447346,1.6625,3.3000
447347,1.6705,3.3000
447348,1.6641,3.3000
447349,1.6641,3.3000
447350,1.6641,3.3000
447351,1.6673,3.3000
447352,1.6657,3.3000
447353,1.6633,3.3000
447354,1.6633,3.3000
447355,1.6641,3.3000
447356,1.6633,3.3000
447357,1.6657,3.3000
447358,1.6649,3.3000
447359,1.6609,3.3000
447360,1.6633,3.3000
447361,1.6641,3.3000
447362,1.6633,3.3000
447363,1.6633,3.3000
447364,1.6633,3.3000
447365,1.6633,3.3000
447366,1.6617,3.3000
447367,1.6625,3.3000
447368,1.6633,3.3000
447369,1.6585,3.3000
447370,1.6633,3.3000
447371,1.6560,3.3000
447372,1.6633,3.3000
447373,1.6593,3.3000
447374,1.6633,3.3000
447375,1.6641,3.3000
447376,1.6617,3.3000
447377,1.6625,3.3000
447378,1.6585,3.3000
447379,1.6665,3.3000
447380,1.6617,3.3000
447381,1.6617,3.3000
447382,1.6577,3.3000
447383,1.6585,3.3000
447384,1.6496,3.3000
447385,1.6496,3.3000
447386,1.6625,3.3000
447387,1.6577,3.3000
447388,1.6560,3.3000
447389,1.6609,3.3000
447390,1.6609,3.3000
447391,1.6617,3.3000
447392,1.6633,3.3000
447393,1.6585,3.3000
447394,1.6617,3.3000
447395,1.6577,3.3000
447396,1.6585,3.3000
447397,1.6705,3.3000
447398,1.6496,3.3000
447399,1.6480,3.3000
447400,1.6496,3.3000
447401,1.6488,3.3000
447402,1.6552,3.3000
447403,1.6560,3.3000
447404,1.6560,3.3000
447405,1.6496,3.3000
447406,1.6496,3.3000
447407,1.6593,3.3000
447408,1.6432,3.3000
447409,1.6552,3.3000
447410,1.6432,3.3000
447411,1.6432,3.3000
447412,1.6585,3.3000
447413,1.6480,3.3000
447414,1.6432,3.3000
447415,1.6496,3.3000
447416,1.6399,3.3000
447417,1.6415,3.3000
447418,1.6448,3.3000
447419,1.6383,3.3000
447420,1.6480,3.3000
447421,1.6456,3.2726
447422,1.6375,3.2404
447423,1.6415,3.2162
447424,1.6375,3.1775
447425,1.6278,3.1606
447426,1.6319,3.1517
447427,1.6375,3.0953
447428,1.6303,3.0695
447429,1.6351,3.0413
447430,1.6286,3.0284
447431,1.6254,2.9857
447432,1.6286,2.9841
447433,1.6254,2.9390
447434,1.6109,2.9132
447435,1.6166,2.8874
447436,1.6158,2.8697
447437,1.6174,2.8471
447438,1.6117,2.8278
447439,1.6125,2.8036
447440,1.6117,2.7971
447441,1.6125,2.7730
447442,1.6335,2.7609
447443,1.6101,2.7440
447444,1.5787,2.7319
447445,1.6069,2.7214
447446,1.6012,2.7037
447447,1.6012,2.6948
447448,1.5988,2.6875
447449,1.5980,2.6682
447450,1.5996,2.6601
447451,1.5988,2.6505
447452,1.5892,2.6432
447453,1.5940,2.6303
447454,1.5900,2.6199
447455,1.5900,2.6142
447456,1.5867,2.6013
447457,1.5900,2.5997
447458,1.5900,2.5796
447459,1.6061,2.5804
447460,1.5884,2.5763
447461,1.5859,2.5715
447462,1.5916,2.5586
447463,1.5875,2.5570
447464,1.5859,2.5497
447465,1.5835,2.5425
447466,1.5859,2.5385
447467,1.5859,2.5320
447468,1.5859,2.5288
447469,1.5835,2.5175
447470,1.5875,2.5199
447471,1.5859,2.5143
447472,1.5851,2.5143
447473,1.5843,2.5022
447474,1.5851,2.5038
447475,1.5835,2.4941
447476,1.5851,2.4966
447477,1.5851,2.4901
447478,1.5851,2.4748
447479,1.5835,2.4861
447480,1.5819,2.4829
447481,1.5803,2.4748
447482,1.5851,2.4708
447483,1.5787,2.4651
447484,1.5851,2.4635
447485,1.5851,2.4627
447486,1.5859,2.4627
447487,1.5859,2.4627
447488,1.5884,2.4627
447489,1.5884,2.4579
447490,1.5859,2.4587
447491,1.5940,2.4547
447492,1.5859,2.4522
447493,1.5932,2.4498
447494,1.5875,2.4482
447495,1.5916,2.4506
447496,1.5908,2.4482
447497,1.5932,2.4442
447498,1.5988,2.4474
447499,1.5964,2.4442
447500,1.5948,2.4418
447501,1.5916,2.4442
447502,1.5964,2.4361
447503,1.6029,2.4410
447504,1.5988,2.4353
447505,1.5996,2.4377
447506,1.6012,2.4377
447507,1.6045,2.4345
447508,1.6012,2.4377
447509,1.6037,2.4377
447510,1.6093,2.4369
447511,1.6061,2.4361
447512,1.6045,2.4369
447513,1.6085,2.4377
447514,1.6045,2.4361
447515,1.6093,2.4361
447516,1.6117,2.4353
447517,1.6117,2.4289
447518,1.6101,2.4369
447519,1.6101,2.4369
447520,1.6125,2.4361
447521,1.6117,2.4329
447522,1.6149,2.4369
447523,1.6133,2.4369
447524,1.6174,2.4369
447525,1.6295,2.4385
447526,1.6206,2.4369
447527,1.6174,2.4611
447528,1.6214,2.4377
447529,1.6262,2.4369
447530,1.6222,2.4401
447531,1.6254,2.4393
447532,1.6270,2.4385
447533,1.6093,2.4426
447534,1.6270,2.4393
447535,1.6246,2.4369
447536,1.6270,2.4369
447537,1.6295,2.4418
447538,1.6278,2.4410
447539,1.6295,2.4498
447540,1.6351,2.4410
447541,1.6351,2.4418
447542,1.6262,2.4426
447543,1.6335,2.4385
447544,1.6359,2.4410
447545,1.6343,2.4410
447546,1.6367,2.4353
447547,1.6367,2.4442
447548,1.6375,2.4442
447549,1.6343,2.4426
447550,1.6367,2.4474
447551,1.6391,2.4482
447552,1.6383,2.4458
447553,1.6383,2.4458
447554,1.6375,2.4458
447555,1.6423,2.4587
447556,1.6319,2.4482
447557,1.6399,2.4474
447558,1.6432,2.4506
447559,1.6448,2.4426
447560,1.6423,2.4490
447561,1.6399,2.4490
447562,1.6432,2.4482
447563,1.6440,2.4482
447564,1.6448,2.4474
447565,1.6456,2.4506
447566,1.6448,2.4393
447567,1.6464,2.4506
447568,1.6383,2.4530
447569,1.6496,2.4401
447570,1.6464,2.4587
447571,1.6383,2.4522
447572,1.6472,2.4514
447573,1.6488,2.4369
447574,1.6552,2.4555
447575,1.6496,2.4555
447576,1.6496,2.4522
447577,1.6343,2.4571
447578,1.6488,2.4522
447579,1.6496,2.4547
447580,1.6480,2.4579
447581,1.6480,2.4611
447582,1.6480,2.4571
447583,1.6415,2.4587
447584,1.6560,2.4579
447585,1.6585,2.4603
447586,1.6496,2.4587
447587,1.6464,2.4579
447588,1.6488,2.4587
447589,1.6560,2.4619
447590,1.6496,2.4571
447591,1.6560,2.4611
447592,1.6496,2.4611
447593,1.6609,2.4571
447594,1.6552,2.4627
447595,1.6496,2.4619
447596,1.6399,2.4522
447597,1.6568,2.4555
447598,1.6617,2.4611
447599,1.6593,2.4619
447600,1.6585,2.4603
447601,1.6560,2.4603
447602,1.6560,2.4571
447603,1.6609,2.4635
447604,1.6488,2.4595
447605,1.6633,2.4627
447606,1.6585,2.4635
447607,1.6552,2.4587
447608,1.6617,2.4579
447609,1.6649,2.4627
447610,1.6633,2.4555
447611,1.6593,2.4555
447612,1.6560,2.4627
447613,1.6552,2.4635
447614,1.6617,2.4547
447615,1.6585,2.4635
447616,1.6899,2.4627
447617,1.6585,2.4627
447618,1.6496,2.4675
447619,1.6496,2.4627
447620,1.6577,2.4627
447621,1.6593,2.4643
447622,1.6560,2.4506
447623,1.6593,2.4635
447624,1.6585,2.4619
447625,1.6568,2.4635
447626,1.6593,2.4675
447627,1.6585,2.4635
447628,1.6560,2.4627
447629,1.6593,2.4643
447630,1.6593,2.4458
447631,1.6609,2.4627
447632,1.6560,2.4627
447633,1.6633,2.5030
447634,1.6754,2.4627
447635,1.6585,2.4627
447636,1.6617,2.4643
447637,1.6617,2.4627
447638,1.6593,2.4627
447639,1.6585,2.4506
447640,1.6609,2.4716
447641,1.6560,2.4635
447642,1.6633,2.4667
447643,1.6560,2.4635
447644,1.6617,2.4643
447645,1.6633,2.4651
447646,1.6560,2.4716
447647,1.6585,2.4853
447648,1.6617,2.4885
447649,1.6552,2.4619
447650,1.6585,2.4627
447651,1.6560,2.4603
447652,1.6617,2.4651
447653,1.6625,2.4635
447654,1.6609,2.4643
447655,1.6738,2.4627
447656,1.6585,2.4651
447657,1.6496,2.4643
447658,1.6407,2.4635
447659,1.6415,2.4659
447660,1.6601,2.4675
447661,1.6657,2.4684
447662,1.6609,2.4684
447663,1.6625,2.4635
447664,1.6617,2.4684
447665,1.6560,2.4651
447666,1.6432,2.4627
447667,1.6560,2.4675
447668,1.6496,2.4627
447669,1.6496,2.4732
447670,1.6593,2.4667
447671,1.6617,2.4667
447672,1.6601,2.4667
447673,1.6609,2.4700
447674,1.6601,2.4643
447675,1.6585,2.4684
447676,1.6633,2.4829
447677,1.6673,2.4643
447678,1.6593,2.4732
447679,1.6552,2.4684
447680,1.6577,2.4643
447681,1.6609,2.4700
447682,1.6560,2.4708
447683,1.6633,2.4966
447684,1.6585,2.4643
447685,1.6560,2.4675
447686,1.6609,2.4684
447687,1.6593,2.4732
447688,1.6585,2.4651
447689,1.6593,2.4684
447690,1.6617,2.4684
447691,1.6577,2.4748
447692,1.6633,2.4667
447693,1.6593,2.4659
447694,1.6609,2.4627
447695,1.6609,2.4675
447696,1.6585,2.4692
447697,1.6625,2.4675
447698,1.6625,2.4667
447699,1.6560,2.4716
447700,1.6407,2.4700
447701,1.6633,2.4635
447702,1.6601,2.4732
447703,1.6625,2.4684
447704,1.6625,2.4667
447705,1.6560,2.4740
447706,1.6609,2.4675
447707,1.6609,2.4716
447708,1.6593,2.4675
447709,1.6585,2.4708
447710,1.6633,2.4748
447711,1.6617,2.4667
447712,1.6633,2.4675
447713,1.6585,2.4667
447714,1.6617,2.4732
447715,1.6593,2.4700
447716,1.6625,2.4684
447717,1.6609,2.4659
447718,1.6593,2.4684
447719,1.6633,2.4708
447720,1.6617,2.4684
447721,1.6593,2.4643
447722,1.6617,2.4627
447723,1.6609,2.4708
447724,1.6585,2.4700
447725,1.6560,2.4659
447726,1.6496,2.4659
447727,1.6585,2.4667
447728,1.6641,2.4692
447729,1.6633,2.4643
447730,1.6593,2.4369
447731,1.6560,2.4748
447732,1.6609,2.4845
447733,1.6617,2.4667
447734,1.6633,2.4667
447735,1.6609,2.4684
447736,1.6617,2.4667
447737,1.6633,2.4659
447738,1.6593,2.4675
447739,1.6472,2.4684
447740,1.6593,2.4845
447741,1.6593,2.4667
447742,1.6552,2.4675
447743,1.6609,2.4684
447744,1.6601,2.4651
447745,1.6601,2.4675
447746,1.6593,2.4635
447747,1.6585,2.4716
447748,1.6560,2.4651
447749,1.6609,2.4627
447750,1.6617,2.4667
447751,1.6552,2.4667
447752,1.6625,2.4716
447753,1.6552,2.4708
447754,1.6601,2.4708
447755,1.6609,2.5207
447756,1.6577,2.4684
447757,1.6496,2.4708
447758,1.6577,2.4675
447759,1.6609,2.4716
447760,1.6625,2.4869
447761,1.6593,2.4627
447762,1.6625,2.4651
447763,1.6585,2.4748
447764,1.6560,2.4611
447765,1.6633,2.4684
447766,1.6560,2.4675
447767,1.6633,2.4635
447768,1.6577,2.4684
447769,1.6625,2.4659
447770,1.6577,2.4675
447771,1.6625,2.4675
447772,1.6617,2.4667
447773,1.6585,2.4675
447774,1.6633,2.4692
447775,1.6625,2.4667
447776,1.6633,2.4659
447777,1.6609,2.4684
447778,1.6359,2.4700
447779,1.6657,2.4659
447780,1.6633,2.4708
447781,1.6625,2.4667
447782,1.6617,2.4716
447783,1.6609,2.4667
447784,1.6601,2.4708
447785,1.6617,2.4675
447786,1.6625,2.4675
447787,1.6609,2.4675
447788,1.6625,2.4684
447789,1.6633,2.4675
447790,1.6625,2.4684
447791,1.6585,2.4732
447792,1.6601,2.4684
447793,1.6585,2.4675
447794,1.6625,2.4651
447795,1.6633,2.4635
447796,1.6609,2.4700
447797,1.6633,2.4393
447798,1.6633,2.4635
447799,1.6633,2.4684
447800,1.6617,2.4651
447801,1.6577,2.4667
447802,1.6617,2.4716
447803,1.6464,2.4659
447804,1.6625,2.4708
447805,1.6633,2.4659
447806,1.6577,2.4684
447807,1.6633,2.4659
447808,1.6560,2.4684
447809,1.6617,2.4619
447810,1.6617,2.4700
447811,1.6601,2.4667
447812,1.6577,2.4700
447813,1.6625,2.4748
447814,1.6633,2.4675
447815,1.6577,2.4700
447816,1.6625,2.4667
447817,1.6585,2.4684
447818,1.6617,2.4659
447819,1.6609,2.4748
447820,1.6633,2.4643
447821,1.6593,2.4684
447822,1.6609,2.4643
447823,1.6593,2.4651
447824,1.6609,2.4700
447825,1.6633,2.4659
447826,1.6681,2.4925
447827,1.6593,2.4667
447828,1.6609,2.4667
447829,1.6617,2.4619
447830,1.6552,2.4651
447831,1.6593,2.4700
447832,1.6593,2.4700
447833,1.6560,2.4708
447834,1.6633,2.4627
447835,1.6585,2.4675
447836,1.6609,2.4659
447837,1.6657,2.4651
447838,1.6609,2.4643
447839,1.6593,2.4675
447840,1.6617,2.4659
447841,1.6633,2.4643
447842,1.6625,2.4635
447843,1.6577,2.4555
447844,1.6641,2.4684
447845,1.6617,2.4675
447846,1.6633,2.4667
447847,1.6585,2.4651
447848,1.6625,2.4684
447849,1.6633,2.4651
447850,1.6609,2.4651
447851,1.6641,2.4651
447852,1.6617,2.4667
447853,1.6625,2.4716
447854,1.6625,2.4651
447855,1.6633,2.4732
447856,1.6585,2.4651
447857,1.6625,2.4635
447858,1.6593,2.4627
447859,1.6641,2.4684
447860,1.6601,2.4627
447861,1.6593,2.4603
447862,1.6585,2.4643
447863,1.6625,2.4587
447864,1.6601,2.4659
447865,1.6633,2.4667
447866,1.6560,2.4643
447867,1.6544,2.4651
447868,1.6649,2.4651
447869,1.6633,2.4651
447870,1.6544,2.4643
447871,1.6633,2.4643
447872,1.6633,2.4643
447873,1.6641,2.4659
447874,1.6633,2.4627
447875,1.6625,2.4667
447876,1.6609,2.4297
447877,1.6601,2.4885
447878,1.6577,2.4603
447879,1.6633,2.4732
447880,1.6625,2.4651
447881,1.6617,2.4684
447882,1.6633,2.4659
447883,1.6552,2.4651
447884,1.6560,2.4579
447885,1.6633,2.4635
447886,1.6295,2.4659
447887,1.6649,2.4643
447888,1.6617,2.4635
447889,1.6464,2.4635
447890,1.6633,2.4627
447891,1.6625,2.4635
447892,1.6633,2.4627
447893,1.6633,2.4627
447894,1.6601,2.4651
447895,1.6633,2.4659
447896,1.6633,2.4627
447897,1.6633,2.4627
447898,1.6625,2.4643
447899,1.6617,2.4627
447900,1.6633,2.4627
447901,1.6617,2.4627
447902,1.6633,2.4627
447903,1.6641,2.4627
447904,1.6593,2.4627
447905,1.6601,2.4627
447906,1.6601,2.4627
447907,1.6633,2.4901
447908,1.6609,2.4651
447909,1.6633,2.4627
447910,1.6593,2.4885
447911,1.6633,2.4627
447912,1.6593,2.4611
447913,1.6625,2.4619
447914,1.6633,2.4619
447915,1.6649,2.4885
447916,1.6633,2.4611
447917,1.6633,2.4627
447918,1.6633,2.4627
447919,1.6641,2.4627
447920,1.6633,2.4611
447921,1.6633,2.4627
447922,1.6633,2.4611
447923,1.6601,2.4627
447924,1.6609,2.4627
447925,1.6641,2.4619
447926,1.6617,2.4611
447927,1.6601,2.4627
447928,1.6625,2.4643
447929,1.6585,2.4571
447930,1.6609,2.4627
447931,1.6609,2.4627
447932,1.6585,2.4635
447933,1.6625,2.4627
447934,1.6609,2.4571
447935,1.6625,2.4627
447936,1.6633,2.4651
447937,1.6633,2.4627
447938,1.6625,2.4627
447939,1.6577,2.4619
447940,1.6641,2.4627
447941,1.6633,2.4627
447942,1.6633,2.4627
447943,1.6633,2.4627
447944,1.6593,2.4611
447945,1.6633,2.4611
447946,1.6633,2.4627
447947,1.6585,2.4627
447948,1.6649,2.4555
447949,1.6625,2.4256
447950,1.6633,2.4611
447951,1.6601,2.4627
447952,1.6633,2.4619
447953,1.6633,2.4466
447954,1.6585,2.4635
447955,1.6754,2.4627
447956,1.6641,2.4611
447957,1.6633,2.4538
447958,1.6593,2.4619
447959,1.6593,2.4627
447960,1.6633,2.4547
447961,1.6633,2.4635
447962,1.6617,2.4627
447963,1.6633,2.4619
447964,1.6609,2.4619
447965,1.6625,2.4627
447966,1.6649,2.4627
447967,1.6673,2.4619
447968,1.6633,2.4627
447969,1.6609,2.4627
447970,1.6633,2.4555
447971,1.6609,2.4740
447972,1.6625,2.4587
447973,1.6633,2.4627
447974,1.6625,2.4619
447975,1.6577,2.4571
447976,1.6625,2.4619
447977,1.6633,2.4595
447978,1.6633,2.4627
447979,1.6593,2.4603
447980,1.6625,2.4643
447981,1.6367,2.4619
447982,1.6617,2.4619
447983,1.6641,2.4627
447984,1.6633,2.4587
447985,1.6633,2.4619
447986,1.6593,2.4627
447987,1.6633,2.4619
447988,1.6593,2.4627
447989,1.6552,2.4619
447990,1.6617,2.4619
447991,1.6625,2.4627
447992,1.6633,2.4611
447993,1.6649,2.4627
447994,1.6617,2.4627
447995,1.6633,2.4627
447996,1.6633,2.4700
447997,1.6609,2.4611
447998,1.6617,2.4619
447999,1.6633,2.4611
448000,1.6633,2.4667
448001,1.6633,2.4684
448002,1.6633,2.4587
448003,1.6593,2.4619
448004,1.6625,2.4627
448005,1.6633,2.4627
448006,1.6633,2.4627
448007,1.6560,2.4611
448008,1.6633,2.4619
448009,1.6625,2.4627
448010,1.6633,2.4635
448011,1.6633,2.4627
448012,1.6633,2.4627
448013,1.6641,2.4619
448014,1.6633,2.4587
448015,1.6375,2.4627
448016,1.6601,2.4684
448017,1.6593,2.4635
448018,1.6673,2.4603
448019,1.6625,2.4619
448020,1.6375,2.4619
448021,1.6593,2.4627
448022,1.6633,2.4619
448023,1.6641,2.4635
448024,1.6625,2.4635
448025,1.6633,2.4627
448026,1.6617,2.4611
448027,1.6625,2.4627
448028,1.6633,2.4627
448029,1.6633,2.4619
448030,1.6625,2.4627
448031,1.6560,2.4627
448032,1.6633,2.4627
448033,1.6633,2.4611
448034,1.6649,2.4651
448035,1.6593,2.4635
448036,1.6673,2.4651
448037,1.6593,2.4538
448038,1.6617,2.4627
448039,1.6633,2.4627
448040,1.6625,2.4627
448041,1.6633,2.4611
448042,1.6633,2.4627
448043,1.6633,2.4627
448044,1.6641,2.4651
448045,1.6633,2.4627
448046,1.6641,2.4611
448047,1.6617,2.4587
448048,1.6649,2.4643
448049,1.6617,2.4603
448050,1.6633,2.4877
448051,1.6649,2.4627
448052,1.6754,2.4619
448053,1.6633,2.4587
448054,1.6593,2.4587
448055,1.6641,2.4619
448056,1.6665,2.4603
448057,1.6673,2.4619
448058,1.6625,2.4627
448059,1.6633,2.4869
448060,1.6633,2.4627
448061,1.6649,2.4619
448062,1.6633,2.4587
448063,1.6496,2.4635
448064,1.6609,2.4627
448065,1.6673,2.4635
448066,1.6633,2.4716
448067,1.6625,2.4627
448068,1.6633,2.4635
448069,1.6609,2.4627
448070,1.6681,2.4587
448071,1.6657,2.4643
448072,1.6633,2.4619
448073,1.6633,2.4627
448074,1.6641,2.4619
448075,1.6633,2.4619
448076,1.6657,2.4748
448077,1.6617,2.4627
448078,1.6649,2.4595
448079,1.6625,2.4651
448080,1.6633,2.4627
448081,1.6673,2.4627
448082,1.6633,2.4587
448083,1.6633,2.4627
448084,1.6633,2.4627
448085,1.6633,2.4627
448086,1.6633,2.4627
448087,1.6641,2.4627
448088,1.6593,2.4450
448089,1.6633,2.4627
448090,1.6625,2.4611
448091,1.6641,2.4627
448092,1.6633,2.4369
448093,1.6633,2.4603
448094,1.6593,2.4611
448095,1.6633,2.4587
448096,1.6641,2.4619
448097,1.6641,2.4627
448098,1.6633,2.4611
448099,1.6633,2.4627
448100,1.6617,2.4603
448101,1.6593,2.4619
448102,1.6633,2.4595
448103,1.6464,2.4595
448104,1.6633,2.4611
448105,1.6593,2.4579
448106,1.6609,2.4611
448107,1.6657,2.4603
448108,1.6617,2.4627
448109,1.6617,2.4579
448110,1.6689,2.4563
448111,1.6609,2.4587
448112,1.6633,2.4611
448113,1.6633,2.4555
448114,1.6601,2.4571
448115,1.6617,2.4619
448116,1.6617,2.4579
448117,1.6617,2.4611
448118,1.6593,2.4579
448119,1.6593,2.4571
448120,1.6657,2.4579
448121,1.6585,2.4611
448122,1.6641,2.4547
448123,1.6601,2.4530
448124,1.6601,2.4627
448125,1.6609,2.4595
448126,1.6641,2.4579
448127,1.6593,2.4579
448128,1.6633,2.4571
448129,1.6601,2.4587
448130,1.6617,2.4563
448131,1.6633,2.4547
448132,1.6577,2.4587
448133,1.6601,2.4563
448134,1.6617,2.4571
448135,1.6593,2.4603
448136,1.6633,2.4547
448137,1.6593,2.4547
448138,1.6641,2.4555
448139,1.6617,2.4587
448140,1.6633,2.4555
448141,1.6625,2.4522
448142,1.6560,2.4587
448143,1.6633,2.4538
448144,1.6633,2.4547
448145,1.6560,2.4547
448146,1.6625,2.4538
448147,1.6609,2.4716
448148,1.6593,2.4555
448149,1.6617,2.4514
448150,1.6633,2.4547
448151,1.6609,2.4506
448152,1.6617,2.4547
448153,1.6633,2.4643
448154,1.6552,2.4538
448155,1.6633,2.4555
448156,1.6633,2.4555
448157,1.6601,2.4555
448158,1.6633,2.4482
448159,1.6633,2.4256
448160,1.6633,2.4522
448161,1.6577,2.4748
448162,1.6609,2.4547
448163,1.6593,2.4514
448164,1.6609,2.4514
448165,1.6560,2.4514
448166,1.6593,2.4571
448167,1.6617,2.4587
448168,1.6633,2.4587
448169,1.6633,2.4522
448170,1.6625,2.4514
448171,1.6625,2.4893
448172,1.6609,2.4555
448173,1.6633,2.4611
448174,1.6633,2.4555
448175,1.6593,2.4563
448176,1.6633,2.4555
448177,1.6609,2.4522
448178,1.6633,2.4587
448179,1.6633,2.4522
448180,1.6633,2.4538
448181,1.6593,2.4530
448182,1.6673,2.4522
448183,1.6641,2.4490
448184,1.6625,2.4530
448185,1.6617,2.4547
448186,1.6625,2.4538
448187,1.6625,2.4530
448188,1.6593,2.4547
448189,1.6738,2.4571
448190,1.6633,2.4514
448191,1.6625,2.4474
448192,1.6633,2.4555
448193,1.6633,2.4514
448194,1.6617,2.4506
448195,1.6625,2.4547
448196,1.6601,2.4530
448197,1.6585,2.4490
448198,1.6641,2.4547
448199,1.6625,2.4393
448200,1.6633,2.4579
448201,1.6593,2.4522
448202,1.6641,2.4530
448203,1.6625,2.4611
448204,1.6641,2.4498
448205,1.6609,2.4547
448206,1.6601,2.4547
448207,1.6625,2.4506
448208,1.6633,2.4547
448209,1.6633,2.4506
448210,1.6633,2.4522
448211,1.6609,2.4555
448212,1.6601,2.4506
448213,1.6601,2.4555
448214,1.6633,2.4273
448215,1.6625,2.4530
448216,1.6585,2.4490
448217,1.6601,2.4538
448218,1.6609,2.4530
448219,1.6625,2.4522
448220,1.6577,2.4506
448221,1.6609,2.4587
448222,1.6625,2.4538
448223,1.6641,2.4563
448224,1.6609,2.4530
448225,1.6641,2.4506
448226,1.6585,2.4522
448227,1.6609,2.4514
448228,1.6633,2.4538
448229,1.6585,2.4514
448230,1.6609,2.4579
448231,1.6585,2.4458
448232,1.6577,2.4555
448233,1.6593,2.4522
448234,1.6609,2.4490
448235,1.6593,2.4506
448236,1.6617,2.4555
448237,1.6625,2.4369
448238,1.6625,2.4555
448239,1.6593,2.4555
448240,1.6609,2.4603
448241,1.6617,2.4514
448242,1.6617,2.4547
448243,1.6609,2.4498
448244,1.6633,2.4506
448245,1.6641,2.4522
448246,1.6480,2.4555
448247,1.6641,2.4530
448248,1.6577,2.4522
448249,1.6625,2.4426
448250,1.6609,2.4514
448251,1.6633,2.4571
448252,1.6641,2.4369
448253,1.6641,2.4547
448254,1.6617,2.4547
448255,1.6633,2.4538
448256,1.6609,2.4538
448257,1.6689,2.4530
448258,1.6633,2.4547
448259,1.6609,2.4514
448260,1.6609,2.4506
448261,1.6609,2.4547
448262,1.6633,2.4498
448263,1.6633,2.4522
448264,1.6649,2.4538
448265,1.6609,2.4522
448266,1.6649,2.4522
448267,1.6625,2.4587
448268,1.6585,2.4530
448269,1.6633,2.4538
448270,1.6665,2.4522
448271,1.6625,2.4498
448272,1.6633,2.4498
448273,1.6601,2.4845
448274,1.6633,2.4538
448275,1.6633,2.4522
448276,1.6786,2.4474
448277,1.6641,2.4579
448278,1.6609,2.4555
448279,1.6617,2.4506
448280,1.6633,2.4514
448281,1.6633,2.4514
448282,1.6617,2.4506
448283,1.6609,2.4530
448284,1.6593,2.4200
448285,1.6625,2.4498
448286,1.6617,2.4522
448287,1.6560,2.4530
448288,1.6617,2.4538
448289,1.6585,2.4514
448290,1.6617,2.4522
448291,1.6625,2.4482
448292,1.6633,2.4506
448293,1.6633,2.4490
448294,1.6633,2.4538
448295,1.6593,2.4547
448296,1.6633,2.4514
448297,1.6633,2.4603
448298,1.6633,2.4538
448299,1.6593,2.4627
448300,1.6641,2.4498
448301,1.6593,2.4555
448302,1.6641,2.4442
448303,1.6593,2.4538
448304,1.6762,2.4426
448305,1.6633,2.4514
448306,1.6633,2.4538
448307,1.6601,2.4522
448308,1.6609,2.4514
448309,1.6762,2.4555
448310,1.6641,2.4514
448311,1.6560,2.4498
448312,1.6609,2.4555
448313,1.6641,2.4506
448314,1.6625,2.4522
448315,1.6633,2.4498
448316,1.6617,2.4547
448317,1.6601,2.4571
448318,1.6585,2.4547
448319,1.6633,2.4555
448320,1.6609,2.4555
448321,1.6633,2.4498
448322,1.6633,2.4514
448323,1.6593,2.4530
448324,1.6633,2.4522
448325,1.6601,2.4555
448326,1.6593,2.4514
448327,1.6577,2.4514
448328,1.6649,2.4506
448329,1.6593,2.4530
448330,1.6617,2.4522
448331,1.6641,2.4522
448332,1.6633,2.4700
448333,1.6649,2.4490
448334,1.6593,2.4522
448335,1.6633,2.4619
448336,1.6633,2.4547
448337,1.6649,2.4538
448338,1.6633,2.4498
448339,1.6617,2.4506
448340,1.6722,2.4506
448341,1.6633,2.4498
448342,1.6633,2.4482
448343,1.6609,2.4458
448344,1.6641,2.4522
448345,1.6593,2.4522
448346,1.6593,2.4506
448347,1.6593,2.4514
448348,1.6625,2.4522
448349,1.6593,2.4522
448350,1.6577,2.4522
448351,1.6641,2.4530
448352,1.6633,2.4498
448353,1.6633,2.4522
448354,1.6625,2.4474
448355,1.6633,2.4506
448356,1.6641,2.4498
448357,1.6585,2.4506
448358,1.6625,2.4506
448359,1.6641,2.4522
448360,1.6625,2.4498
448361,1.6633,2.4579
448362,1.6633,2.4482
448363,1.6625,2.4498
448364,1.6633,2.4474
448365,1.6617,2.4506
448366,1.6609,2.4522
448367,1.6585,2.4538
448368,1.6657,2.4538
448369,1.6641,2.4506
448370,1.6593,2.4506
448371,1.6633,2.4555
448372,1.6609,2.4498
448373,1.6625,2.4482
448374,1.6633,2.4490
448375,1.6633,2.4506
448376,1.6641,2.4547
448377,1.6633,2.4522
448378,1.6617,2.4482
448379,1.6609,2.4538
448380,1.6633,2.4506
448381,1.6617,2.4482
448382,1.6633,2.4458
448383,1.6641,2.4547
448384,1.6633,2.4514
448385,1.6609,2.4514
448386,1.6625,2.4506
448387,1.6617,2.4353
448388,1.6609,2.4587
448389,1.6641,2.4506
448390,1.6657,2.4474
448391,1.6609,2.4748
448392,1.6633,2.4514
448393,1.6625,2.4498
448394,1.6593,2.4482
448395,1.6585,2.4522
448396,1.6480,2.4522
448397,1.6609,2.4256
448398,1.6568,2.4530
448399,1.6617,2.4506
448400,1.6625,2.4490
448401,1.6625,2.4530
448402,1.6609,2.4490
448403,1.6609,2.4498
448404,1.6633,2.4498
448405,1.6633,2.4514
448406,1.6464,2.4514
448407,1.6617,2.4506
448408,1.6633,2.4514
448409,1.6657,2.4530
448410,1.6633,2.4530
448411,1.6609,2.4522
448412,1.6641,2.4522
448413,1.6633,2.4579
448414,1.6786,2.4506
448415,1.6593,2.4571
448416,1.6633,2.4547
448417,1.6633,2.4538
448418,1.6641,2.4530
448419,1.6625,2.4579
448420,1.6633,2.4555
448421,1.6609,2.4530
448422,1.6593,2.4547
448423,1.6641,2.4538
448424,1.6633,2.4506
448425,1.6488,2.4555
448426,1.6633,2.4555
448427,1.6560,2.4571
448428,1.6593,2.4538
448429,1.6577,2.4571
448430,1.6617,2.4522
448431,1.6633,2.4547
448432,1.6633,2.4538
448433,1.6633,2.4571
448434,1.6593,2.4547
448435,1.6625,2.4555
448436,1.6625,2.4555
448437,1.6633,2.4522
448438,1.6617,2.4530
448439,1.6633,2.4547
448440,1.6609,2.4627
448441,1.6625,2.4555
448442,1.6633,2.4555
448443,1.6617,2.4538
448444,1.6641,2.4587
448445,1.6633,2.4684
448446,1.6641,2.4587
448447,1.6633,2.4627
448448,1.6633,2.4538
448449,1.6593,2.4506
448450,1.6496,2.4538
448451,1.6633,2.4458
448452,1.6601,2.4547
448453,1.6609,2.4579
448454,1.6633,2.4538
448455,1.6585,2.4538
448456,1.6617,2.4555
448457,1.6609,2.4514
448458,1.6633,2.4555
448459,1.6609,2.4514
448460,1.6641,2.4587
448461,1.6593,2.4538
448462,1.6633,2.4522
448463,1.6609,2.4538
448464,1.6617,2.4530
448465,1.6641,2.4538
448466,1.6633,2.4538
448467,1.6633,2.4522
448468,1.6625,2.4530
448469,1.6633,2.4555
448470,1.6423,2.4555
448471,1.6585,2.4555
448472,1.6625,2.4522
448473,1.6577,2.4514
448474,1.6625,2.4506
448475,1.6633,2.4547
448476,1.6633,2.4538
448477,1.6633,2.4603
448478,1.6633,2.4579
448479,1.6633,2.4522
448480,1.6689,2.4538
448481,1.6593,2.4571
448482,1.6560,2.4555
448483,1.6609,2.4555
448484,1.6609,2.4522
448485,1.6657,2.4514
448486,1.6633,2.4522
448487,1.6617,2.4538
448488,1.6617,2.4514
448489,1.6456,2.4538
448490,1.6601,2.4522
448491,1.6633,2.4547
448492,1.6609,2.4530
448493,1.6617,2.4522
448494,1.6585,2.4555
448495,1.6633,2.4522
448496,1.6633,2.4474
448497,1.6633,2.4522
448498,1.6641,2.4555
448499,1.6625,2.4547
448500,1.6633,2.4547
448501,1.6633,2.4538
448502,1.6585,2.4538
448503,1.6625,2.4514
448504,1.6585,2.4506
448505,1.6633,2.4538
448506,1.6593,2.4547
448507,1.6577,2.4530
448508,1.6593,2.4522
448509,1.6641,2.4538
448510,1.6593,2.4522
448511,1.6617,2.4506
448512,1.6593,2.4538
448513,1.6633,2.4547
448514,1.6496,2.4506
448515,1.6577,2.4506
448516,1.6609,2.4490
448517,1.6609,2.4482
448518,1.6617,2.4498
448519,1.6625,2.4522
448520,1.6633,2.4522
448521,1.6593,2.4611
448522,1.6649,2.4514
448523,1.6625,2.4490
448524,1.6609,2.4490
448525,1.6609,2.4538
448526,1.6633,2.4490
448527,1.6617,2.4530
448528,1.6633,2.4522
448529,1.6601,2.4498
448530,1.6560,2.4538
448531,1.6617,2.4684
448532,1.6601,2.4538
448533,1.6585,2.4506
448534,1.6633,2.4538
448535,1.6617,2.4498
448536,1.6609,2.4506
448537,1.6633,2.4474
448538,1.6625,2.4530
448539,1.6601,2.4482
448540,1.6633,2.4522
448541,1.6593,2.4538
448542,1.6617,2.4426
448543,1.6625,2.4498
448544,1.6625,2.4224
448545,1.6552,2.4514
448546,1.6633,2.4418
448547,1.6585,2.4482
448548,1.6633,2.4498
448549,1.6617,2.4522
448550,1.6625,2.4538
448551,1.6633,2.4522
448552,1.6593,2.4490
448553,1.6609,2.4482
448554,1.6593,2.4458
448555,1.6593,2.4522
448556,1.6609,2.4514
448557,1.6770,2.4514
448558,1.6625,2.4619
448559,1.6641,2.4522
448560,1.6633,2.4547
448561,1.6625,2.4514
448562,1.6577,2.4514
448563,1.6617,2.4514
448564,1.6625,2.4538
448565,1.6633,2.4522
448566,1.6762,2.4514
448567,1.6375,2.4490
448568,1.6633,2.4506
448569,1.6577,2.4506
448570,1.6617,2.4490
448571,1.6633,2.4538
448572,1.6633,2.4514
448573,1.6633,2.4530
448574,1.6617,2.4506
448575,1.6625,2.4498
448576,1.6625,2.4514
448577,1.6625,2.4506
448578,1.6641,2.4514
448579,1.6633,2.4490
448580,1.6617,2.4498
448581,1.6633,2.4547
448582,1.6577,2.4538
448583,1.6601,2.4506
448584,1.6625,2.4514
448585,1.6617,2.4522
448586,1.6609,2.4514
448587,1.6609,2.4522
448588,1.6488,2.4490
448589,1.6585,2.4538
448590,1.6593,2.4522
448591,1.6633,2.4579
448592,1.6609,2.4547
448593,1.6585,2.4530
448594,1.6585,2.4498
448595,1.6617,2.4514
448596,1.6625,2.4522
448597,1.6633,2.4530
448598,1.6633,2.4514
448599,1.6633,2.4530
448600,1.6633,2.4329
448601,1.6585,2.4522
448602,1.6625,2.4522
448603,1.6633,2.4506
448604,1.6633,2.4538
448605,1.6577,2.4522
448606,1.6617,2.4498
448607,1.6609,2.4514
448608,1.6609,2.4538
448609,1.6609,2.4522
448610,1.6617,2.4506
448611,1.6633,2.4506
448612,1.6585,2.4547
448613,1.6633,2.4538
448614,1.6617,2.4555
448615,1.6625,2.4514
448616,1.6488,2.4538
448617,1.6593,2.4619
448618,1.6633,2.4506
448619,1.6593,2.4547
448620,1.6601,2.4490
448621,1.6633,2.4506
448622,1.6593,2.4522
448623,1.6609,2.4474
448624,1.6609,2.4498
448625,1.6617,2.4514
448626,1.6633,2.4514
448627,1.6593,2.4651
448628,1.6593,2.4530
448629,1.6649,2.4506
448630,1.6593,2.4490
448631,1.6633,2.4506
448632,1.6609,2.4812
448633,1.6601,2.4498
448634,1.6560,2.4506
448635,1.6585,2.4482
448636,1.6633,2.4547
448637,1.6593,2.4474
448638,1.6625,2.4506
448639,1.6625,2.4530
448640,1.6593,2.4571
448641,1.6633,2.4538
448642,1.6577,2.4522
448643,1.6633,2.4514
448644,1.6633,2.4538
448645,1.6633,2.4498
448646,1.6625,2.4506
448647,1.6593,2.4522
448648,1.6641,2.4498
448649,1.6770,2.4514
448650,1.6601,2.4555
448651,1.6633,2.4522
448652,1.6625,2.4522
448653,1.6585,2.4538
448654,1.6617,2.4474
448655,1.6577,2.4514
448656,1.6488,2.4522
448657,1.6633,2.4514
448658,1.6625,2.4506
448659,1.6609,2.4522
448660,1.6577,2.4555
448661,1.6633,2.4522
448662,1.6609,2.4522
448663,1.6681,2.4514
448664,1.6609,2.4506
448665,1.6593,2.4506
448666,1.6593,2.4530
448667,1.6617,2.4547
448668,1.6609,2.4474
448669,1.6625,2.4538
448670,1.6633,2.4522
448671,1.6585,2.4538
448672,1.6432,2.4490
448673,1.6633,2.4506
448674,1.6593,2.4522
448675,1.6601,2.4522
448676,1.6633,2.4547
448677,1.6633,2.4530
448678,1.6633,2.4538
448679,1.6633,2.4522
448680,1.6633,2.4498
448681,1.6609,2.4522
448682,1.6593,2.4514
448683,1.6464,2.4538
448684,1.6633,2.4522
448685,1.6609,2.4490
448686,1.6286,2.4506
448687,1.6633,2.4522
448688,1.6625,2.4530
448689,1.6480,2.4506
448690,1.6552,2.4490
448691,1.6625,2.4321
448692,1.6617,2.4538
448693,1.6585,2.4514
448694,1.6585,2.4538
448695,1.6617,2.4514
448696,1.6585,2.4490
448697,1.6633,2.4490
448698,1.6609,2.4506
448699,1.6585,2.4538
448700,1.6593,2.4506
448701,1.6601,2.4522
448702,1.6633,2.4514
448703,1.6641,2.4522
448704,1.6601,2.4506
448705,1.6609,2.4482
448706,1.6617,2.4506
448707,1.6633,2.4498
448708,1.6593,2.4506
448709,1.6633,2.4418
448710,1.6633,2.4530
448711,1.6593,2.4522
448712,1.6609,2.4506
448713,1.6593,2.4498
448714,1.6625,2.4506
448715,1.6609,2.4490
448716,1.6585,2.4547
448717,1.6496,2.4514
448718,1.6593,2.4538
448719,1.6609,2.4514
448720,1.6714,2.4587
448721,1.6625,2.4498
448722,1.6802,2.4490
448723,1.6617,2.4490
448724,1.6609,2.4514
448725,1.6625,2.4410
448726,1.6609,2.4474
448727,1.6544,2.4482
448728,1.6842,2.4474
448729,1.6633,2.4506
448730,1.6625,2.4506
448731,1.6593,2.4506
448732,1.6609,2.4498
448733,1.6585,2.4522
448734,1.6633,2.4474
448735,1.6794,2.4498
448736,1.6625,2.4466
448737,1.6633,2.4490
448738,1.6633,2.4498
448739,1.6593,2.4522
448740,1.6609,2.4490
448741,1.6633,2.4563
448742,1.6633,2.4474
448743,1.6609,2.4579
448744,1.6633,2.4547
448745,1.6625,2.4514
448746,1.6585,2.4474
448747,1.6609,2.4498
448748,1.6617,2.4514
448749,1.6585,2.4474
448750,1.6617,2.4369
448751,1.6601,2.4490
448752,1.6633,2.4522
448753,1.6593,2.4490
448754,1.6633,2.4506
448755,1.6577,2.4506
448756,1.6617,2.4514
448757,1.6593,2.4498
448758,1.6633,2.4547
448759,1.6617,2.4514
448760,1.6552,2.4522
448761,1.6609,2.4490
448762,1.6601,2.4498
448763,1.6593,2.4522
448764,1.6617,2.4506
448765,1.6617,2.4256
448766,1.6689,2.4506
448767,1.6609,2.4619
448768,1.6617,2.4458
448769,1.6625,2.4514
448770,1.6673,2.4538
448771,1.6633,2.4482
448772,1.6633,2.4538
448773,1.6625,2.4490
448774,1.6609,2.4490
448775,1.6633,2.4506
448776,1.6633,2.4514
448777,1.6633,2.4506
448778,1.6609,2.4506
448779,1.6633,2.4490
448780,1.6633,2.4514
448781,1.6593,2.4490
448782,1.6633,2.4530
448783,1.6617,2.4522
448784,1.6593,2.4514
448785,1.6625,2.4530
448786,1.6633,2.4514
448787,1.6633,2.4490
448788,1.6633,2.4498
448789,1.6633,2.4482
448790,1.6609,2.4506
448791,1.6552,2.4522
448792,1.6633,2.4506
448793,1.6633,2.4498
448794,1.6657,2.4514
448795,1.6625,2.4547
448796,1.6617,2.4482
448797,1.6633,2.4522
448798,1.6633,2.4538
448799,1.6633,2.4506
448800,1.6496,2.4522
448801,1.6633,2.4482
448802,1.6609,2.4514
448803,1.6609,2.4184
448804,1.6633,2.4369
448805,1.6625,2.4514
448806,1.6633,2.4514
448807,1.6617,2.4514
448808,1.6633,2.4490
448809,1.6601,2.4506
448810,1.6641,2.4684
448811,1.6633,2.4514
448812,1.6609,2.4522
448813,1.6625,2.4538
448814,1.6641,2.4530
448815,1.6633,2.4506
448816,1.6633,2.4506
448817,1.6673,2.4490
448818,1.6786,2.4547
448819,1.6633,2.4514
448820,1.6633,2.4514
448821,1.6633,2.4490
448822,1.6633,2.4474
448823,1.6617,2.4522
448824,1.6633,2.4490
448825,1.6593,2.4490
448826,1.6633,2.4514
448827,1.6609,2.4506
448828,1.6625,2.4530
448829,1.6673,2.4490
448830,1.6633,2.4490
448831,1.6617,2.4490
448832,1.6633,2.4547
448833,1.6577,2.4522
448834,1.6601,2.4482
448835,1.6617,2.4506
448836,1.6585,2.4514
448837,1.6577,2.4490
448838,1.6633,2.4514
448839,1.6617,2.4498
448840,1.6633,2.4514
448841,1.6633,2.4514
448842,1.6609,2.4498
448843,1.6617,2.4555
448844,1.6633,2.4506
448845,1.6625,2.4522
448846,1.6609,2.4587
448847,1.6649,2.4361
448848,1.6641,2.4555
448849,1.6633,2.4514
448850,1.6633,2.4514
448851,1.6609,2.4522
448852,1.6544,2.4490
448853,1.6633,2.4627
448854,1.6762,2.4506
448855,1.6617,2.4530
448856,1.6609,2.4506
448857,1.6633,2.4547
448858,1.6625,2.4506
448859,1.6593,2.4522
448860,1.6633,2.4522
448861,1.6625,2.4514
448862,1.6633,2.4490
448863,1.6633,2.4506
448864,1.6617,2.4514
448865,1.6633,2.4506
448866,1.6617,2.4547
448867,1.6657,2.4514
448868,1.6633,2.4522
448869,1.6633,2.4498
448870,1.6633,2.4611
448871,1.6617,2.4466
448872,1.6657,2.4538
448873,1.6657,2.4538
448874,1.6496,2.4490
448875,1.6633,2.4522
448876,1.6625,2.4514
448877,1.6633,2.4522
448878,1.6633,2.4547
448879,1.6633,2.4538
448880,1.6633,2.4514
448881,1.6754,2.4474
448882,1.6609,2.4506
448883,1.6633,2.4547
448884,1.6601,2.4555
448885,1.6633,2.4538
448886,1.6625,2.4579
448887,1.6625,2.4530
448888,1.6786,2.4538
448889,1.6625,2.4498
448890,1.6633,2.4522
448891,1.6633,2.4538
448892,1.6399,2.4547
448893,1.6633,2.4514
448894,1.6633,2.4547
448895,1.6762,2.4522
448896,1.6617,2.4530
448897,1.6657,2.4522
448898,1.6633,2.4538
448899,1.6625,2.4522
448900,1.6657,2.4555
448901,1.6625,2.4530
448902,1.6617,2.4530
448903,1.6633,2.4538
448904,1.6673,2.4603
448905,1.6633,2.4571
448906,1.6633,2.4538
448907,1.6609,2.4522
448908,1.6577,2.4555
448909,1.6633,2.4877
448910,1.6633,2.4514
448911,1.6633,2.4587
448912,1.6633,2.4514
448913,1.6609,2.4522
448914,1.6633,2.4547
448915,1.6625,2.4530
448916,1.6633,2.4506
448917,1.6633,2.4547
448918,1.6633,2.4530
448919,1.6633,2.4643
448920,1.6625,2.4555
448921,1.6641,2.4538
448922,1.6625,2.4547
448923,1.6633,2.4555
448924,1.6633,2.4571
448925,1.6649,2.4571
448926,1.6633,2.4555
448927,1.6633,2.4530
448928,1.6649,2.4571
448929,1.6617,2.4522
448930,1.6649,2.4498
448931,1.6649,2.4506
448932,1.6633,2.4538
448933,1.6633,2.4522
448934,1.6625,2.4547
448935,1.6649,2.4506
448936,1.6633,2.4547
448937,1.6641,2.4522
448938,1.6544,2.4522
448939,1.6641,2.4482
448940,1.6657,2.4627
448941,1.6609,2.4506
448942,1.6633,2.4490
448943,1.6633,2.4514
448944,1.6609,2.4498
448945,1.6649,2.4474
448946,1.6633,2.4514
448947,1.6633,2.4466
448948,1.6633,2.4474
448949,1.6633,2.4498
448950,1.6641,2.4474
448951,1.6665,2.4498
448952,1.6649,2.4450
448953,1.6641,2.4450
448954,1.6633,2.4474
448955,1.6585,2.4482
448956,1.6633,2.4595
448957,1.6633,2.4474
448958,1.6649,2.4466
448959,1.6633,2.4418
448960,1.6633,2.4281
448961,1.6633,2.4410
448962,1.6625,2.4450
448963,1.6633,2.4369
448964,1.6633,2.4410
448965,1.6657,2.4385
448966,1.6633,2.4377
448967,1.6649,2.4377
448968,1.6633,2.4442
448969,1.6649,2.4385
448970,1.6633,2.4385
448971,1.6633,2.4369
448972,1.6633,2.4377
448973,1.6633,2.4345
448974,1.6609,2.4385
448975,1.6625,2.4353
448976,1.6560,2.4410
448977,1.6633,2.4321
448978,1.6633,2.4337
448979,1.6633,2.4329
448980,1.6633,2.4289
448981,1.6633,2.4313
448982,1.6633,2.4289
448983,1.6633,2.4264
448984,1.6617,2.4256
448985,1.6625,2.4200
448986,1.6633,2.4248
448987,1.6585,2.4369
448988,1.6625,2.4224
448989,1.6625,2.4240
448990,1.6633,2.4200
448991,1.6593,2.4200
448992,1.6738,2.4200
448993,1.6585,2.4168
448994,1.6448,2.4216
448995,1.6601,2.4168
448996,1.6625,2.4152
448997,1.6593,2.4144
448998,1.6633,2.4168
448999,1.6593,2.4111
449000,1.6609,2.4111
449001,1.6633,2.4136
449002,1.6560,2.4111
449003,1.6560,2.4111
449004,1.6609,2.4111
449005,1.6593,2.4152
449006,1.6560,2.4095
449007,1.6609,2.4087
449008,1.6585,2.4039
449009,1.6609,2.4039
449010,1.6593,2.4039
449011,1.6609,2.4039
449012,1.6560,2.4039
449013,1.6577,2.4063
449014,1.6609,2.4007
449015,1.6560,2.3982
449016,1.6568,2.4031
449017,1.6609,2.3990
449018,1.6609,2.3966
449019,1.6609,2.3958
449020,1.6593,2.4087
449021,1.6609,2.3942
449022,1.6625,2.3958
449023,1.6585,2.3886
449024,1.6609,2.3942
449025,1.6552,2.3934
449026,1.6593,2.3910
449027,1.6593,2.3894
449028,1.6601,2.3910
449029,1.6585,2.3853
449030,1.6593,2.3894
449031,1.6633,2.3878
449032,1.6577,2.3853
449033,1.6496,2.3862
449034,1.6617,2.3870
449035,1.6585,2.3853
449036,1.6552,2.3862
449037,1.6577,2.3837
449038,1.6577,2.3845
449039,1.6560,2.3853
449040,1.6407,2.3845
449041,1.6649,2.3845
449042,1.6617,2.3797
449043,1.6593,2.3853
449044,1.6593,2.3853
449045,1.6681,2.3813
449046,1.6560,2.3845
449047,1.6577,2.3837
449048,1.6568,2.3821
449049,1.6496,2.3797
449050,1.6762,2.3805
449051,1.6609,2.3805
449052,1.6625,2.3805
449053,1.6496,2.3813
449054,1.6585,2.3805
449055,1.6625,2.3813
449056,1.6601,2.3805
449057,1.6665,2.3781
449058,1.6625,2.3781
449059,1.6577,2.3773
449060,1.6617,2.3765
449061,1.6625,2.3773
449062,1.6593,2.3757
449063,1.6609,2.3684
449064,1.6601,2.3749
449065,1.6593,2.3765
449066,1.6609,2.3749
449067,1.6633,2.3749
449068,1.6625,2.3741
449069,1.6633,2.3862
449070,1.6609,2.3741
449071,1.6633,2.3765
449072,1.6625,2.3741
449073,1.6593,2.3862
449074,1.6609,2.3749
449075,1.6609,2.3733
449076,1.6601,2.3596
449077,1.6633,2.3725
449078,1.6633,2.3716
449079,1.6585,2.3733
449080,1.6625,2.3636
449081,1.6601,2.3716
449082,1.6625,2.3716
449083,1.6601,2.3708
449084,1.6593,2.3708
449085,1.6633,2.3684
449086,1.6577,2.3781
449087,1.6625,2.3716
449088,1.6633,2.3757
449089,1.6617,2.3700
449090,1.6625,2.3716
449091,1.6633,2.3700
449092,1.6633,2.3716
449093,1.6593,2.3668
449094,1.6585,2.3708
449095,1.6625,2.3644
449096,1.6617,2.3708
449097,1.6633,2.3692
449098,1.6609,2.3708
449099,1.6593,2.3676
449100,1.6601,2.3708
449101,1.6633,2.3684
449102,1.6625,2.3644
449103,1.6641,2.3676
449104,1.6625,2.3684
449105,1.6617,2.3668
449106,1.6617,2.3676
449107,1.6641,2.3596
449108,1.6641,2.3668
449109,1.6633,2.3676
449110,1.6601,2.3708
449111,1.6633,2.3676
449112,1.6625,2.3636
449113,1.6625,2.3636
449114,1.6633,2.3684
449115,1.6601,2.3684
449116,1.6633,2.3612
449117,1.6633,2.3733
449118,1.6625,2.3636
449119,1.6625,2.3636
449120,1.6641,2.3644
449121,1.6633,2.3636
449122,1.6577,2.3652
449123,1.6609,2.3668
449124,1.6633,2.3636
449125,1.6641,2.3571
449126,1.6633,2.3620
449127,1.6633,2.3636
449128,1.6617,2.3451
449129,1.6641,2.3620
449130,1.6633,2.3644
449131,1.6609,2.3596
449132,1.6601,2.3596
449133,1.6633,2.3596
449134,1.6657,2.3620
449135,1.6633,2.3596
449136,1.6625,2.3620
449137,1.6609,2.3588
449138,1.6625,2.3596
449139,1.6625,2.3596
449140,1.6633,2.3588
449141,1.6681,2.3596
449142,1.6633,2.3604
449143,1.6617,2.3604
449144,1.6625,2.3596
449145,1.6496,2.3596
449146,1.6633,2.3596
449147,1.6818,2.3604
449148,1.6544,2.3596
449149,1.6633,2.3596
449150,1.6641,2.3547
449151,1.6633,2.3596
449152,1.6617,2.3588
449153,1.6633,2.3596
449154,1.6633,2.3579
449155,1.6641,2.3571
449156,1.6657,2.3596
449157,1.6432,2.3571
449158,1.6609,2.3563
449159,1.6633,2.3725
449160,1.6633,2.3386
449161,1.6633,2.3596
449162,1.6633,2.3523
449163,1.6633,2.3596
449164,1.6714,2.3555
449165,1.6641,2.3579
449166,1.6617,2.3523
449167,1.6633,2.3644
449168,1.6617,2.3547
449169,1.6633,2.3579
449170,1.6649,2.3555
449171,1.6633,2.3523
449172,1.6633,2.3539
449173,1.6633,2.3555
449174,1.6633,2.3523
449175,1.6617,2.3547
449176,1.6633,2.3523
449177,1.6649,2.3539
449178,1.6641,2.3515
449179,1.6641,2.3483
449180,1.6641,2.3491
449181,1.6625,2.3515
449182,1.6633,2.3523
449183,1.6633,2.3507
449184,1.6641,2.3507
449185,1.6633,2.3507
449186,1.6641,2.3475
449187,1.6633,2.3475
449188,1.6649,2.3499
449189,1.6633,2.3507
449190,1.6657,2.3475
449191,1.6641,2.3523
449192,1.6633,2.3491
449193,1.6673,2.3588
449194,1.6633,2.3491
449195,1.6633,2.3555
449196,1.6649,2.3547
449197,1.6625,2.3467
449198,1.6633,2.3467
449199,1.6633,2.3507
449200,1.6649,2.3507
449201,1.6633,2.3459
449202,1.6625,2.3491
449203,1.6633,2.3491
449204,1.6673,2.3459
449205,1.6577,2.3426
449206,1.6633,2.3571
449207,1.6714,2.3451
449208,1.6649,2.3459
449209,1.6633,2.3475
449210,1.6649,2.3547
449211,1.6633,2.3467
449212,1.6633,2.3451
449213,1.6641,2.3491
449214,1.6633,2.3507
449215,1.6641,2.3451
449216,1.6633,2.3475
449217,1.6633,2.3467
449218,1.6681,2.3362
449219,1.6625,2.3442
449220,1.6633,2.3426
449221,1.6625,2.3354
449222,1.6633,2.3426
449223,1.6649,2.3426
449224,1.6649,2.3507
449225,1.6673,2.3418
449226,1.6633,2.3378
449227,1.6649,2.3459
449228,1.6657,2.3426
449229,1.6633,2.3426
449230,1.6657,2.3426
449231,1.6633,2.3467
449232,1.6617,2.3442
449233,1.6633,2.3410
449234,1.6633,2.3426
449235,1.6633,2.3386
449236,1.6657,2.3442
449237,1.6617,2.3418
449238,1.6633,2.3378
449239,1.6633,2.3426
449240,1.6665,2.3418
449241,1.6641,2.3410
449242,1.6633,2.3314
449243,1.6609,2.3394
449244,1.6617,2.3442
449245,1.6641,2.3386
449246,1.6705,2.3394
449247,1.6633,2.3394
449248,1.6633,2.3410
449249,1.6681,2.3418
449250,1.6633,2.3426
449251,1.6633,2.3346
449252,1.6633,2.3362
449253,1.6641,2.3386
449254,1.6633,2.3442
449255,1.6617,2.3378
449256,1.6641,2.3410
449257,1.6649,2.3386
449258,1.6633,2.3297
449259,1.6641,2.3338
449260,1.6649,2.3378
449261,1.6657,2.3410
449262,1.6673,2.3378
449263,1.6633,2.3378
449264,1.6633,2.3394
449265,1.6633,2.3338
449266,1.6633,2.3410
449267,1.6649,2.3378
449268,1.6649,2.3338
449269,1.6657,2.3362
449270,1.6649,2.3596
449271,1.6633,2.3362
449272,1.6818,2.3362
449273,1.6649,2.3386
449274,1.6633,2.3386
449275,1.6697,2.3362
449276,1.6657,2.3354
449277,1.6673,2.3354
449278,1.6633,2.3346
449279,1.6633,2.3209
449280,1.6673,2.3289
449281,1.6633,2.3338
449282,1.6375,2.3354
449283,1.6665,2.3362
449284,1.6633,2.3346
449285,1.6633,2.3362
449286,1.6641,2.3362
449287,1.6641,2.3338
449288,1.6657,2.3338
449289,1.6657,2.3346
449290,1.6633,2.3338
449291,1.6657,2.3338
449292,1.6681,2.3346
449293,1.6649,2.3346
449294,1.6633,2.3338
449295,1.6673,2.3426
449296,1.6714,2.3338
449297,1.6657,2.3322
449298,1.6633,2.3330
449299,1.6665,2.3338
449300,1.6673,2.3346
449301,1.6681,2.3330
449302,1.6681,2.3338
449303,1.6649,2.3338
449304,1.6649,2.3338
449305,1.6552,2.3314
449306,1.6633,2.3314
449307,1.6665,2.3338
449308,1.6657,2.3338
449309,1.6657,2.3314
449310,1.6641,2.3338
449311,1.6633,2.3338
449312,1.6633,2.3338
449313,1.6649,2.3297
449314,1.6673,2.3330
449315,1.6641,2.3322
449316,1.6649,2.3338
449317,1.6681,2.3322
449318,1.6673,2.3265
449319,1.6649,2.3338
449320,1.6673,2.3297
449321,1.6673,2.3330
449322,1.6609,2.3305
449323,1.6673,2.3314
449324,1.6649,2.3297
449325,1.6657,2.3322
449326,1.6633,2.3273
449327,1.6673,2.3330
449328,1.6633,2.3297
449329,1.6633,2.3314
449330,1.6649,2.3305
449331,1.6641,2.3314
449332,1.6649,2.3297
449333,1.6657,2.3281
449334,1.6633,2.3314
449335,1.6633,2.3314
449336,1.6657,2.3281
449337,1.6641,2.3281
449338,1.6689,2.3322
449339,1.6649,2.3314
449340,1.6673,2.3314
449341,1.6633,2.3265
449342,1.6633,2.3297
449343,1.6633,2.3225
449344,1.6657,2.3289
449345,1.6633,2.3297
449346,1.6657,2.3136
449347,1.6770,2.3314
449348,1.6633,2.3265
449349,1.6681,2.3322
449350,1.6657,2.3289
449351,1.6778,2.3314
449352,1.6681,2.3305
449353,1.6633,2.3257
449354,1.6689,2.3297
449355,1.6673,2.3297
449356,1.6657,2.3265
449357,1.6657,2.3249
449358,1.6665,2.3297
449359,1.6649,2.3249
449360,1.6891,2.3225
449361,1.6746,2.3281
449362,1.6746,2.3265
449363,1.6681,2.3249
449364,1.6649,2.3233
449365,1.6649,2.3249
449366,1.6560,2.3265
449367,1.6673,2.3338
449368,1.6649,2.3249
449369,1.6649,2.3265
449370,1.6673,2.3233
449371,1.6633,2.3265
449372,1.6633,2.3249
449373,1.6641,2.3265
449374,1.6633,2.3241
449375,1.6649,2.3281
449376,1.6673,2.3257
449377,1.6673,2.3225
449378,1.6754,2.3249
449379,1.6673,2.3233
449380,1.6714,2.3289
449381,1.6681,2.3249
449382,1.6649,2.3249
449383,1.6705,2.3217
449384,1.6665,2.3233
449385,1.6810,2.3241
449386,1.6673,2.3249
449387,1.6673,2.3265
449388,1.6673,2.3233
449389,1.6649,2.3225
449390,1.6633,2.3225
449391,1.6641,2.3265
449392,1.6689,2.3233
449393,1.6673,2.3209
449394,1.6657,2.3281
449395,1.6689,2.3233
449396,1.6657,2.3257
449397,1.6681,2.3217
449398,1.6722,2.3201
449399,1.6657,2.3233
449400,1.6657,2.3241
449401,1.6665,2.3201
449402,1.6633,2.3209
449403,1.6657,2.3201
449404,1.6681,2.3209
449405,1.6657,2.3201
449406,1.6649,2.3201
449407,1.6714,2.3217
449408,1.6673,2.3136
449409,1.6705,2.3249
449410,1.6649,2.3193
449411,1.6633,2.3209
449412,1.6681,2.3338
449413,1.6689,2.3209
449414,1.6657,2.3209
449415,1.6633,2.3233
449416,1.6657,2.3225
449417,1.6641,2.3225
449418,1.6633,2.3209
449419,1.6633,2.3225
449420,1.6649,2.3217
449421,1.6657,2.3265
449422,1.6657,2.3209
449423,1.6665,2.3289
449424,1.6714,2.3185
449425,1.6673,2.3209
449426,1.6665,2.3201
449427,1.6641,2.3217
449428,1.6681,2.3201
449429,1.6689,2.3193
449430,1.6673,2.3193
449431,1.6649,2.3193
449432,1.6689,2.3185
449433,1.6673,2.3249
449434,1.6649,2.3168
449435,1.6673,2.3249
449436,1.6633,2.3201
449437,1.6649,2.3185
449438,1.6649,2.3209
449439,1.6641,2.3185
449440,1.6673,2.3168
449441,1.6681,2.3201
449442,1.6681,2.3185
449443,1.6810,2.3185
449444,1.6633,2.3185
449445,1.6641,2.3168
449446,1.6657,2.3193
449447,1.6641,2.3152
449448,1.6633,2.3168
449449,1.6681,2.3193
449450,1.6681,2.3185
449451,1.6649,2.3193
449452,1.6665,2.3201
449453,1.6641,2.3168
449454,1.6641,2.3168
449455,1.6633,2.3152
449456,1.6714,2.3177
449457,1.6641,2.3225
449458,1.6657,2.3241
449459,1.6633,2.3160
449460,1.6657,2.3120
449461,1.6657,2.3168
449462,1.6673,2.3120
449463,1.6665,2.3160
449464,1.6641,2.3128
449465,1.6657,2.3136
449466,1.6649,2.3160
449467,1.6697,2.3168
449468,1.6633,2.3152
449469,1.6665,2.3104
449470,1.6649,2.3160
449471,1.6633,2.3128
449472,1.6673,2.3136
449473,1.6633,2.3168
449474,1.6681,2.3136
449475,1.6665,2.3168
449476,1.6657,2.3112
449477,1.6673,2.3168
449478,1.6722,2.3136
449479,1.6641,2.3177
449480,1.6673,2.3160
449481,1.6665,2.3136
449482,1.6673,2.3072
449483,1.6673,2.3136
449484,1.6689,2.3185
449485,1.6673,2.3128
449486,1.6851,2.3128
449487,1.6689,2.3120
449488,1.6681,2.3160
449489,1.6665,2.3120
449490,1.6649,2.3160
449491,1.6641,2.3152
449492,1.6577,2.3136
449493,1.6705,2.3152
449494,1.6681,2.3152
449495,1.6673,2.3152
449496,1.6665,2.3144
449497,1.6657,2.3064
449498,1.6633,2.3080
449499,1.6705,2.3160
449500,1.6705,2.3136
449501,1.6681,2.3080
449502,1.6673,2.3056
449503,1.6705,2.3128
449504,1.6689,2.3112
449505,1.6649,2.3168
449506,1.6649,2.3104
449507,1.6722,2.3136
449508,1.6673,2.3168
449509,1.6705,2.3120
449510,1.6689,2.3072
449511,1.6641,2.3096
449512,1.6577,2.3120
449513,1.6681,2.3160
449514,1.6657,2.3136
449515,1.6657,2.3136
449516,1.6601,2.3128
449517,1.6714,2.3152
449518,1.6657,2.3128
449519,1.6633,2.3120
449520,1.6657,2.3120
449521,1.6673,2.3225
449522,1.6657,2.3128
449523,1.6649,2.3128
449524,1.6673,2.3152
449525,1.6681,2.3096
449526,1.6633,2.3112
449527,1.6714,2.3064
449528,1.6673,2.3120
449529,1.6697,2.3104
449530,1.6689,2.3120
449531,1.6649,2.3104
449532,1.6657,2.3128
449533,1.6657,2.3120
449534,1.6641,2.3128
449535,1.6705,2.3112
449536,1.6681,2.3168
449537,1.6673,2.3120
449538,1.6657,2.3120
449539,1.6697,2.3088
449540,1.6681,2.3120
449541,1.6681,2.3120
449542,1.6657,2.3088
449543,1.6681,2.3096
449544,1.6681,2.3104
449545,1.6689,2.3193
449546,1.6689,2.3120
449547,1.6649,2.3096
449548,1.6714,2.3088
449549,1.6641,2.3112
449550,1.6641,2.3080
449551,1.6649,2.3088
449552,1.6722,2.3080
449553,1.6705,2.3088
449554,1.6649,2.3096
449555,1.6649,2.3104
449556,1.6689,2.3104
449557,1.6657,2.2943
449558,1.6657,2.3104
449559,1.6689,2.3104
449560,1.6714,2.3160
449561,1.6778,2.3096
449562,1.6673,2.3088
449563,1.6681,2.3088
449564,1.6689,2.3088
449565,1.6665,2.3088
449566,1.6673,2.3168
449567,1.6689,2.3136
449568,1.6883,2.3096
449569,1.6681,2.3096
449570,1.6657,2.3096
449571,1.6657,2.3136
449572,1.6738,2.3080
449573,1.6681,2.3088
449574,1.6673,2.2991
449575,1.6649,2.3088
449576,1.6714,2.3104
449577,1.6786,2.3088
449578,1.6689,2.3104
449579,1.6738,2.3096
449580,1.6738,2.3225
449581,1.6689,2.3104
449582,1.6689,2.3096
449583,1.6649,2.3080
449584,1.6641,2.3088
449585,1.6641,2.3128
449586,1.6633,2.3072
449587,1.6657,2.3096
449588,1.6657,2.3072
449589,1.6722,2.3120
449590,1.6722,2.3104
449591,1.6842,2.3104
449592,1.6681,2.3056
449593,1.6649,2.2878
449594,1.6657,2.2911
449595,1.6625,2.3104
449596,1.6689,2.3088
449597,1.6705,2.3096
449598,1.6496,2.3080
449599,1.6705,2.3104
449600,1.6722,2.2951
449601,1.6689,2.3265
449602,1.6633,2.3080
449603,1.6714,2.3088
449604,1.6689,2.3104
449605,1.6714,2.3088
449606,1.6689,2.3096
449607,1.6689,2.3080
449608,1.6714,2.3080
449609,1.6657,2.3080
449610,1.6714,2.3080
449611,1.6738,2.3104
449612,1.6681,2.3120
449613,1.6657,2.3096
449614,1.6689,2.3096
449615,1.6705,2.3056
449616,1.6714,2.3088
449617,1.6689,2.3040
449618,1.6681,2.3080
449619,1.6673,2.3080
449620,1.6657,2.3080
449621,1.6673,2.3112
449622,1.6705,2.3072
449623,1.6657,2.3080
449624,1.6657,2.3080
449625,1.6665,2.3080
449626,1.6681,2.3080
449627,1.6722,2.3080
449628,1.6673,2.3096
449629,1.6641,2.3072
449630,1.6673,2.3080
449631,1.6689,2.3080
449632,1.6649,2.3072
449633,1.6689,2.3080
449634,1.6657,2.3225
449635,1.6705,2.3080
449636,1.6617,2.3072
449637,1.6689,2.3080
449638,1.6665,2.3168
449639,1.6649,2.3080
449640,1.6689,2.3080
449641,1.6705,2.2991
449642,1.6649,2.3080
449643,1.6705,2.3080
449644,1.6681,2.3080
449645,1.6714,2.3064
449646,1.6641,2.3080
449647,1.6649,2.3072
449648,1.6681,2.3007
449649,1.6657,2.3080
449650,1.6689,2.2975
449651,1.6705,2.3056
449652,1.6689,2.3080
449653,1.6722,2.3072
449654,1.6722,2.3072
449655,1.6641,2.3080
449656,1.6657,2.3080
449657,1.6722,2.3080
449658,1.6673,2.3048
449659,1.6730,2.3056
449660,1.6681,2.3297
449661,1.6633,2.3080
449662,1.6681,2.3072
449663,1.6657,2.3064
449664,1.6673,2.3064
449665,1.6673,2.3080
449666,1.6705,2.3064
449667,1.6689,2.3056
449668,1.6714,2.3040
449669,1.6681,2.3056
449670,1.6560,2.3056
449671,1.6633,2.3040
449672,1.6657,2.3080
449673,1.6681,2.3080
449674,1.6689,2.3032
449675,1.6689,2.3040
449676,1.6689,2.3064
449677,1.6633,2.3056
449678,1.6673,2.3007
449679,1.6689,2.3040
449680,1.6681,2.3072
449681,1.6681,2.3040
449682,1.6689,2.3023
449683,1.6722,2.3040
449684,1.6681,2.3040
449685,1.6681,2.3064
449686,1.6714,2.3023
449687,1.6746,2.3048
449688,1.6673,2.3185
449689,1.6689,2.3040
449690,1.6657,2.3023
449691,1.6714,2.3023
449692,1.6665,2.3193
449693,1.6673,2.3023
449694,1.6689,2.3056
449695,1.6673,2.3032
449696,1.6705,2.3056
449697,1.6689,2.3072
449698,1.6705,2.3040
449699,1.6665,2.3023
449700,1.6673,2.3040
449701,1.6657,2.3040
449702,1.6738,2.3048
449703,1.6689,2.3056
449704,1.6738,2.3007
449705,1.6705,2.3032
449706,1.6705,2.3040
449707,1.6673,2.2959
449708,1.6738,2.3023
449709,1.6673,2.3152
449710,1.6657,2.3080
449711,1.6705,2.3032
449712,1.6673,2.2999
449713,1.6689,2.3040
449714,1.6673,2.3023
449715,1.6689,2.3048
449716,1.6673,2.2959
449717,1.6681,2.2967
449718,1.6673,2.3080
449719,1.6649,2.3072
449720,1.6722,2.3023
449721,1.6657,2.3032
449722,1.6754,2.3040
449723,1.6705,2.2975
449724,1.6673,2.3007
449725,1.6722,2.2999
449726,1.6649,2.3032
449727,1.6714,2.3040
449728,1.6714,2.3007
449729,1.6689,2.3032
449730,1.6705,2.3007
449731,1.6697,2.3032
449732,1.6681,2.3032
449733,1.6746,2.3023
449734,1.6673,2.3023
449735,1.6657,2.3032
449736,1.6681,2.2999
449737,1.6689,2.3040
449738,1.6722,2.3040
449739,1.6673,2.3080
449740,1.6689,2.3032
449741,1.6730,2.3032
449742,1.6770,2.3048
449743,1.6681,2.3023
449744,1.6689,2.2975
449745,1.6738,2.3007
449746,1.6673,2.3023
449747,1.6681,2.3023
449748,1.6657,2.2999
449749,1.6689,2.2991
449750,1.6633,2.2975
449751,1.6722,2.2991
449752,1.6689,2.2991
449753,1.6730,2.3048
449754,1.6681,2.2991
449755,1.6705,2.2975
449756,1.6746,2.2967
449757,1.6738,2.2967
449758,1.6689,2.2814
449759,1.6681,2.3007
449760,1.6705,2.2959
449761,1.6657,2.2943
449762,1.6649,2.2862
449763,1.6722,2.2959
449764,1.6673,2.3015
449765,1.6714,2.3015
449766,1.6681,2.2991
449767,1.6649,2.2999
449768,1.6722,2.2975
449769,1.6665,2.2999
449770,1.6705,2.3015
449771,1.6746,2.2975
449772,1.6641,2.2991
449773,1.6673,2.2951
449774,1.6714,2.2903
449775,1.6681,2.3032
449776,1.6689,2.2951
449777,1.6681,2.2991
449778,1.6714,2.3007
449779,1.6681,2.2991
449780,1.6665,2.2999
449781,1.6738,2.2967
449782,1.6681,2.2967
449783,1.6673,2.2999
449784,1.6689,2.3007
449785,1.6705,2.2951
449786,1.6609,2.2967
449787,1.6714,2.2959
449788,1.6681,2.2991
449789,1.6657,2.2991
449790,1.6657,2.2983
449791,1.6689,2.2975
449792,1.6754,2.2999
449793,1.6722,2.2983
449794,1.6689,2.2983
449795,1.6689,2.2959
449796,1.6714,2.2911
449797,1.6705,2.2959
449798,1.6689,2.2999
449799,1.6714,2.2975
449800,1.6746,2.2943
449801,1.6818,2.2959
449802,1.6593,2.2927
449803,1.6714,2.3080
449804,1.6714,2.2975
449805,1.6681,2.2999
449806,1.6681,2.2991
449807,1.6746,2.2951
449808,1.6649,2.2983
449809,1.6746,2.2967
449810,1.6754,2.2959
449811,1.6714,2.2983
449812,1.6681,2.2991
449813,1.6681,2.2983
449814,1.6681,2.3032
449815,1.6714,2.2999
449816,1.6657,2.2967
449817,1.6657,2.2975
449818,1.6754,2.2951
449819,1.6601,2.2935
449820,1.6673,2.2975
449821,1.6705,2.2967
449822,1.6722,2.2951
449823,1.6689,2.2967
449824,1.6649,2.2959
449825,1.6738,2.2951
449826,1.6714,2.2935
449827,1.6673,2.2975
449828,1.6738,2.2959
449829,1.6738,2.2975
449830,1.6714,2.2967
449831,1.6681,2.2975
449832,1.6697,2.2951
449833,1.6673,2.2943
449834,1.6689,2.2943
449835,1.6730,2.2959
449836,1.6714,2.2927
449837,1.6641,2.3032
449838,1.6665,2.2975
449839,1.6681,2.2991
449840,1.6714,2.2927
449841,1.6746,2.2951
449842,1.6593,2.2943
449843,1.6722,2.2967
449844,1.6705,2.2943
449845,1.6738,2.2959
449846,1.6738,2.2959
449847,1.6673,2.2975
449848,1.6697,2.2967
449849,1.6681,2.2951
449850,1.6705,2.2975
449851,1.6681,2.3096
449852,1.6689,2.2943
449853,1.6705,2.2943
449854,1.6810,2.2943
449855,1.6730,2.2975
449856,1.6689,2.2967
449857,1.6657,2.2959
449858,1.6657,2.2943
449859,1.6722,2.2943
449860,1.6689,2.2895
449861,1.6673,2.2943
449862,1.6689,2.2943
449863,1.6673,2.2967
449864,1.6689,2.2943
449865,1.6665,2.2967
449866,1.6714,2.2959
449867,1.6657,2.2959
449868,1.6689,2.2951
449869,1.6730,2.2895
449870,1.6681,2.2927
449871,1.6689,2.2790
449872,1.6722,2.2975
449873,1.6689,2.2838
449874,1.6714,2.2959
449875,1.6738,2.2967
449876,1.6714,2.2943
449877,1.6705,2.2975
449878,1.6714,2.3386
449879,1.6722,2.2943
449880,1.6730,2.2959
449881,1.6689,2.2959
449882,1.6722,2.2959
449883,1.6746,2.2975
449884,1.6681,2.2943
449885,1.6746,2.2862
449886,1.6722,2.2975
449887,1.6722,2.2935
449888,1.6714,2.3007
449889,1.6705,2.2935
449890,1.6738,2.2967
449891,1.6714,2.2927
449892,1.6714,2.2943
449893,1.6714,2.3007
449894,1.6722,2.2967
449895,1.6722,2.2959
449896,1.6705,2.2943
449897,1.6722,2.2935
449898,1.6746,2.2927
449899,1.6697,2.2878
449900,1.6657,2.2943
449901,1.6738,2.2959
449902,1.6730,2.2911
449903,1.6689,2.2975
449904,1.6681,2.2943
449905,1.6738,2.2927
449906,1.6689,2.2967
449907,1.6673,2.2919
449908,1.6673,2.2967
449909,1.6899,2.2967
449910,1.6681,2.2991
449911,1.6657,2.2959
449912,1.6738,2.2959
449913,1.6746,2.2951
449914,1.6617,2.2975
449915,1.6689,2.2935
449916,1.6722,2.2943
449917,1.6689,2.2959
449918,1.6722,2.2870
449919,1.6738,2.2967
449920,1.6722,2.2911
449921,1.6689,2.2927
449922,1.6730,2.2975
449923,1.6689,2.2895
449924,1.6705,2.2959
449925,1.6714,2.2862
449926,1.6705,2.2870
449927,1.6705,2.2935
449928,1.6714,2.2967
449929,1.6722,2.2919
449930,1.6714,2.2951
449931,1.6714,2.2911
449932,1.6722,2.2943
449933,1.6657,2.2927
449934,1.6730,2.2935
449935,1.6673,2.2878
449936,1.6714,2.2999
449937,1.6722,2.2935
449938,1.6714,2.2943
449939,1.6746,2.2927
449940,1.6891,2.2935
449941,1.6681,2.2943
449942,1.6689,2.2878
449943,1.6673,2.2935
449944,1.6673,2.2903
449945,1.6689,2.2927
449946,1.6722,2.2951
449947,1.6738,2.2951
449948,1.6697,2.2943
449949,1.6722,2.2911
449950,1.6689,2.2943
449951,1.6738,2.2943
449952,1.6738,2.2927
449953,1.6746,2.2862
449954,1.6714,2.2911
449955,1.6746,2.2935
449956,1.6689,2.2943
449957,1.6770,2.2911
449958,1.6681,2.2919
449959,1.6738,2.2911
449960,1.6689,2.2895
449961,1.6714,2.2911
449962,1.6746,2.2975
449963,1.6746,2.2967
449964,1.6722,2.2903
449965,1.6730,2.3265
449966,1.6746,2.2935
449967,1.6681,2.2943
449968,1.6722,2.2927
449969,1.6633,2.2943
449970,1.6681,2.2919
449971,1.6722,2.2903
449972,1.6633,2.2911
449973,1.6673,2.2927
449974,1.6738,2.2999
449975,1.6722,2.2878
449976,1.6778,2.2951
449977,1.6738,2.2927
449978,1.6714,2.2927
449979,1.6738,2.2967
449980,1.6722,2.2935
449981,1.6705,2.2991
449982,1.6746,2.2935
449983,1.6738,2.2919
449984,1.6689,2.2943
449985,1.6738,2.3056
449986,1.6754,2.2951
449987,1.6883,2.2919
449988,1.6681,2.2927
449989,1.6770,2.2967
449990,1.6730,2.2862
449991,1.6714,2.2911
449992,1.6722,2.2935
449993,1.6681,2.2927
449994,1.6738,2.2935
449995,1.6705,2.2919
449996,1.6738,2.2975
449997,1.6738,2.2943
449998,1.6722,2.2927
449999,1.6689,2.2967
450000,1.6705,2.2911
450001,1.6722,2.2951
450002,1.6681,2.2927
450003,1.6722,2.2927
450004,1.6714,2.2943
450005,1.6714,2.2846
450006,1.6714,2.2927
450007,1.6738,2.2943
450008,1.6738,2.2911
450009,1.6681,2.2935
450010,1.6770,2.2927
450011,1.6730,2.2895
450012,1.6762,2.2943
450013,1.6705,2.2959
450014,1.6738,2.2766
450015,1.6641,2.2927
450016,1.6705,2.2935
450017,1.6705,2.2919
450018,1.6818,2.2911
450019,1.6770,2.2911
450020,1.6714,2.2862
450021,1.6730,2.2911
450022,1.6754,2.2903
450023,1.6746,2.2951
450024,1.6746,2.2935
450025,1.6746,2.2838
450026,1.6762,2.2927
450027,1.6681,2.2903
450028,1.6738,2.2927
450029,1.6754,2.2927
450030,1.6746,2.2878
450031,1.6705,2.2862
450032,1.6673,2.2927
450033,1.6714,2.2895
450034,1.6689,2.2919
450035,1.6705,2.2903
450036,1.6738,2.2903
450037,1.6746,2.2935
450038,1.6705,2.2911
450039,1.6738,2.2903
450040,1.6722,2.2895
450041,1.6746,2.2911
450042,1.6657,2.2878
450043,1.6730,2.2959
450044,1.6649,2.2927
450045,1.6714,2.2830
450046,1.6730,2.2870
450047,1.6697,2.2903
450048,1.6738,2.2878
450049,1.6722,2.2903
450050,1.6673,2.2911
450051,1.6705,2.2927
450052,1.6633,2.2878
450053,1.6746,2.2903
450054,1.6689,2.2927
450055,1.6681,2.2927
450056,1.6730,2.2911
450057,1.6738,2.2870
450058,1.6689,2.2903
450059,1.6689,2.2870
450060,1.6722,2.2870
450061,1.6738,2.2927
450062,1.6722,2.2862
450063,1.6722,2.2895
450064,1.6722,2.2862
450065,1.6714,2.2903
450066,1.6730,2.2878
450067,1.6609,2.2911
450068,1.6738,2.2911
450069,1.6689,2.2878
450070,1.6681,2.2862
450071,1.6705,2.2935
450072,1.6714,2.2911
450073,1.6738,2.2878
450074,1.6754,2.2870
450075,1.6714,2.2911
450076,1.6746,2.2927
450077,1.6754,2.2911
450078,1.6722,2.2911
450079,1.6762,2.3064
450080,1.6754,2.2903
450081,1.6770,2.2903
450082,1.6722,2.2878
450083,1.6762,2.2886
450084,1.6714,2.2878
450085,1.6649,2.2895
450086,1.6730,2.2911
450087,1.6754,2.2878
450088,1.6714,2.2895
450089,1.6697,2.2878
450090,1.6754,2.2870
450091,1.6689,2.2951
450092,1.6730,2.2903
450093,1.6714,2.2862
450094,1.6738,2.2895
450095,1.6867,2.2959
450096,1.6778,2.2838
450097,1.6738,2.2935
450098,1.6746,2.2878
450099,1.6754,2.2903
450100,1.6754,2.2870
450101,1.6722,2.2895
450102,1.6754,2.2870
450103,1.6722,2.2911
450104,1.6722,2.2878
450105,1.6722,2.2927
450106,1.6738,2.2878
450107,1.6810,2.2878
450108,1.6730,2.2919
450109,1.6762,2.2903
450110,1.6722,2.2878
450111,1.6738,2.2878
450112,1.6714,2.2927
450113,1.6738,2.2862
450114,1.6826,2.2878
450115,1.6762,2.2895
450116,1.6617,2.2903
450117,1.6754,2.2903
450118,1.6770,2.2878
450119,1.6641,2.2878
450120,1.6722,2.2822
450121,1.6722,2.2895
450122,1.6746,2.2862
450123,1.6770,2.2870
450124,1.6746,2.2878
450125,1.6705,2.2903
450126,1.6730,2.2854
450127,1.6722,2.2846
450128,1.6649,2.2878
450129,1.6722,2.2838
450130,1.6746,2.2903
450131,1.6738,2.2878
450132,1.6754,2.2878
450133,1.6778,2.2935
450134,1.6738,2.2878
450135,1.6810,2.2870
450136,1.6689,2.2846
450137,1.6617,2.2854
450138,1.6770,2.2822
450139,1.6714,2.2854
450140,1.6738,2.2846
450141,1.6762,2.2959
450142,1.6746,2.2741
450143,1.6714,2.2895
450144,1.6738,2.2838
450145,1.6762,2.2846
450146,1.6754,2.2911
450147,1.6705,2.2822
450148,1.6705,2.2895
450149,1.6722,2.2862
450150,1.6746,2.2911
450151,1.6762,2.2862
450152,1.6762,2.2870
450153,1.6738,2.2911
450154,1.6705,2.2862
450155,1.6746,2.2846
450156,1.6770,2.2903
450157,1.6714,2.2870
450158,1.6705,2.2846
450159,1.6754,2.2862
450160,1.6762,2.2895
450161,1.6705,2.2862
450162,1.6738,2.2854
450163,1.6746,2.2838
450164,1.6778,2.2870
450165,1.6802,2.2911
450166,1.6762,2.2935
450167,1.6714,2.2870
450168,1.6778,2.2903
450169,1.6786,2.2878
450170,1.6730,2.2862
450171,1.6786,2.3064
450172,1.6778,2.2903
450173,1.6754,2.2870
450174,1.6609,2.2878
450175,1.6786,2.2838
450176,1.6802,2.2878
450177,1.6810,2.2903
450178,1.6778,2.2903
450179,1.6802,2.2822
450180,1.6770,2.2911
450181,1.6802,2.2878
450182,1.6826,2.2935
450183,1.6778,2.2943
450184,1.6770,2.2991
450185,1.6851,2.2935
450186,1.6818,2.2878
450187,1.6762,2.2911
450188,1.6802,2.2846
450189,1.6818,2.2943
450190,1.6770,2.2903
450191,1.6794,2.2927
450192,1.6810,2.2911
450193,1.6842,2.2911
450194,1.6738,2.2919
450195,1.6802,2.2911
450196,1.6842,2.2774
450197,1.6851,2.2911
450198,1.6842,2.2895
450199,1.6770,2.2959
450200,1.6770,2.2935
450201,1.6818,2.2935
450202,1.6802,2.2911
450203,1.6778,2.2959
450204,1.6818,2.2927
450205,1.6802,2.2911
450206,1.6770,2.2935
450207,1.6802,2.2959
450208,1.6923,2.2943
450209,1.6818,2.2943
450210,1.6802,2.2975
450211,1.6818,2.2943
450212,1.6802,2.2878
450213,1.6802,2.2951
450214,1.6762,2.2927
450215,1.6770,2.2919
450216,1.6810,2.2911
450217,1.6786,2.2943
450218,1.6851,2.2959
450219,1.6770,2.2943
450220,1.6786,2.2959
450221,1.6778,2.2967
450222,1.6601,2.2991
450223,1.6794,2.2975
450224,1.6802,2.2951
450225,1.6818,2.2911
450226,1.6770,2.3032
450227,1.6834,2.2951
450228,1.6810,2.2951
450229,1.6859,2.2975
450230,1.6867,2.3032
450231,1.6786,2.2975
450232,1.6842,2.2959
450233,1.6883,2.2943
450234,1.6875,2.2983
450235,1.6818,2.2846
450236,1.6867,2.2999
450237,1.6851,2.2975
450238,1.6834,2.2959
450239,1.6883,2.2951
450240,1.6834,2.2927
450241,1.6859,2.2959
450242,1.6851,2.2975
450243,1.6738,2.2959
450244,1.6851,2.2975
450245,1.6842,2.2967
450246,1.7036,2.2991
450247,1.6867,2.2967
450248,1.6891,2.2991
450249,1.6834,2.2991
450250,1.6875,2.2967
450251,1.6859,2.2999
450252,1.6875,2.2999
450253,1.6851,2.2975
450254,1.6867,2.3007
450255,1.6834,2.2991
450256,1.6867,2.2959
450257,1.6875,2.2999
450258,1.6842,2.2967
450259,1.6818,2.2975
450260,1.6883,2.2959
450261,1.6891,2.3007
450262,1.6834,2.2975
450263,1.6875,2.2951
450264,1.6907,2.2975
450265,1.6842,2.2959
450266,1.6883,2.2951
450267,1.6842,2.2983
450268,1.6851,2.2991
450269,1.6891,2.2991
450270,1.6867,2.2959
450271,1.6891,2.2967
450272,1.6867,2.2975
450273,1.6891,2.2975
450274,1.6883,2.2959
450275,1.6818,2.2991
450276,1.6891,2.2959
450277,1.6867,2.2959
450278,1.6883,2.2975
450279,1.6842,2.2967
450280,1.6891,2.3007
450281,1.6891,2.2975
450282,1.6875,2.3007
450283,1.6883,2.2999
450284,1.6891,2.3007
450285,1.6891,2.2975
450286,1.6851,2.2999
450287,1.6899,2.3007
450288,1.6883,2.2975
450289,1.7028,2.2967
450290,1.6875,2.2886
450291,1.6875,2.3080
450292,1.6915,2.3007
450293,1.6891,2.2991
450294,1.6891,2.2959
450295,1.6891,2.3007
450296,1.6875,2.2975
450297,1.6907,2.2975
450298,1.6891,2.2991
450299,1.6867,2.2999
450300,1.6891,2.3032
450301,1.6891,2.3193
450302,1.6883,2.2983
450303,1.6867,2.3056
450304,1.6891,2.2999
450305,1.6867,2.2959
450306,1.6883,2.2975
450307,1.6883,2.3314
450308,1.6851,2.2983
450309,1.6891,2.2991
450310,1.6875,2.3007
450311,1.6851,2.3023
450312,1.6891,2.2991
450313,1.6891,2.2975
450314,1.6891,2.2991
450315,1.6883,2.3072
450316,1.6867,2.2991
450317,1.6859,2.3032
450318,1.6899,2.2991
450319,1.6891,2.3023
450320,1.6891,2.2999
450321,1.6883,2.3040
450322,1.6851,2.2991
450323,1.6891,2.2991
450324,1.6891,2.2999
450325,1.6883,2.3007
450326,1.6891,2.2935
450327,1.6891,2.3007
450328,1.6883,2.2991
450329,1.6851,2.3023
450330,1.6939,2.3072
450331,1.6810,2.3032
450332,1.6851,2.2983
450333,1.6875,2.3040
450334,1.6842,2.3023
450335,1.6907,2.2782
450336,1.6842,2.3064
450337,1.6923,2.3032
450338,1.6867,2.3023
450339,1.6834,2.3032
450340,1.6891,2.3007
450341,1.6883,2.3040
450342,1.6891,2.2959
450343,1.6899,2.3072
450344,1.6883,2.3032
450345,1.6891,2.3048
450346,1.6794,2.3064
450347,1.6891,2.3032
450348,1.6891,2.3032
450349,1.6891,2.3064
450350,1.6891,2.3072
450351,1.6899,2.3080
450352,1.6931,2.3023
450353,1.6891,2.3040
450354,1.6891,2.3023
450355,1.6891,2.3040
450356,1.6899,2.3040
450357,1.6899,2.3048
450358,1.6891,2.3048
450359,1.6891,2.3032
450360,1.6891,2.3056
450361,1.6883,2.3064
450362,1.6891,2.3040
450363,1.6883,2.3080
450364,1.6867,2.3056
450365,1.6899,2.3072
450366,1.6931,2.3056
450367,1.6899,2.3056
450368,1.6899,2.3040
450369,1.6867,2.3096
450370,1.6891,2.3080
450371,1.6907,2.3015
450372,1.6891,2.3080
450373,1.6931,2.3080
450374,1.6907,2.3072
450375,1.6899,2.3040
450376,1.6891,2.3072
450377,1.6891,2.3080
450378,1.6891,2.3088
450379,1.6875,2.3104
450380,1.6802,2.3080
450381,1.6891,2.3056
450382,1.6891,2.3072
450383,1.6891,2.3104
450384,1.6875,2.3088
450385,1.6907,2.3104
450386,1.6891,2.3080
450387,1.6883,2.3104
450388,1.6915,2.3120
450389,1.6891,2.3072
450390,1.6891,2.3136
450391,1.7020,2.3120
450392,1.6891,2.3128
450393,1.6891,2.3136
450394,1.6915,2.3104
450395,1.6891,2.3088
450396,1.6899,2.3330
450397,1.6891,2.3120
450398,1.6891,2.3128
450399,1.6891,2.3128
450400,1.6883,2.3128
450401,1.6931,2.3217
450402,1.6891,2.3160
450403,1.6891,2.3217
450404,1.6891,2.3160
450405,1.6891,2.3185
450406,1.6875,2.3136
450407,1.6891,2.3193
450408,1.6883,2.3209
450409,1.6915,2.3185
450410,1.6875,2.3209
450411,1.6891,2.3354
450412,1.6891,2.3201
450413,1.6891,2.3201
450414,1.6891,2.3168
450415,1.6867,2.3168
450416,1.6891,2.3136
450417,1.6907,2.3209
450418,1.6875,2.3168
450419,1.6891,2.3193
450420,1.6891,2.3193
450421,1.6891,2.3185
450422,1.6915,2.3177
450423,1.6891,2.3225
450424,1.6899,2.3201
450425,1.6915,2.3265
450426,1.6899,2.3225
450427,1.6891,2.3201
450428,1.7020,2.3217
450429,1.6891,2.3225
450430,1.6979,2.3217
450431,1.6891,2.3217
450432,1.6931,2.3209
450433,1.6891,2.3080
450434,1.6891,2.3233
450435,1.6915,2.3241
450436,1.6899,2.3233
450437,1.6931,2.3217
450438,1.6891,2.3547
450439,1.6891,2.3217
450440,1.6931,2.3120
450441,1.6891,2.3112
450442,1.6907,2.3265
450443,1.6907,2.3249
450444,1.6633,2.3217
450445,1.6915,2.3322
450446,1.6915,2.3225
450447,1.6907,2.3265
450448,1.6899,2.3249
450449,1.6891,2.3225
450450,1.6891,2.3257
450451,1.6931,2.3225
450452,1.6939,2.3241
450453,1.6915,2.3249
450454,1.6891,2.3249
450455,1.6915,2.3257
450456,1.6899,2.3491
450457,1.6883,2.3241
450458,1.6794,2.3241
450459,1.6996,2.3185
450460,1.6907,2.3249
450461,1.6891,2.3297
450462,1.6907,2.3265
450463,1.6907,2.3257
450464,1.6891,2.3499
450465,1.6939,2.3386
450466,1.6915,2.3289
450467,1.6947,2.3265
450468,1.6891,2.3305
450469,1.6915,2.3297
450470,1.6947,2.3289
450471,1.6891,2.3338
450472,1.6971,2.2935
450473,1.6875,2.3273
450474,1.6931,2.3330
450475,1.6907,2.3297
450476,1.6923,2.3273
450477,1.6931,2.3217
450478,1.6971,2.3241
450479,1.6907,2.3265
450480,1.6891,2.3297
450481,1.6891,2.3305
450482,1.6907,2.3241
450483,1.6907,2.3305
450484,1.6931,2.3265
450485,1.6899,2.3330
450486,1.6939,2.3338
450487,1.6915,2.3330
450488,1.6931,2.3338
450489,1.6899,2.3314
450490,1.6931,2.3338
450491,1.6875,2.3297
450492,1.6971,2.3346
450493,1.6883,2.3314
450494,1.6947,2.3338
450495,1.6947,2.3338
450496,1.6915,2.3338
450497,1.6915,2.3338
450498,1.6947,2.3563
450499,1.6963,2.3338
450500,1.6931,2.3314
450501,1.6891,2.3305
450502,1.6923,2.3338
450503,1.6891,2.3378
450504,1.6915,2.3346
450505,1.6939,2.3362
450506,1.6899,2.3571
450507,1.6891,2.3426
450508,1.6907,2.3370
450509,1.6931,2.3370
450510,1.6931,2.3386
450511,1.6963,2.3386
450512,1.6963,2.3386
450513,1.6891,2.3370
450514,1.6963,2.3346
450515,1.6915,2.3418
450516,1.6939,2.3442
450517,1.6899,2.3410
450518,1.6923,2.3426
450519,1.6947,2.3459
450520,1.6939,2.3418
450521,1.6931,2.3418
450522,1.6971,2.3442
450523,1.6899,2.3370
450524,1.6891,2.3434
450525,1.6939,2.3378
450526,1.6899,2.3394
450527,1.6915,2.3467
450528,1.6915,2.3515
450529,1.6996,2.3442
450530,1.6963,2.3483
450531,1.7004,2.3467
450532,1.7012,2.3459
450533,1.6931,2.3459
450534,1.6939,2.3491
450535,1.6939,2.3442
450536,1.6947,2.3338
450537,1.6947,2.3507
450538,1.6979,2.3507
450539,1.6891,2.3491
450540,1.6963,2.3515
450541,1.6939,2.3515
450542,1.6931,2.3523
450543,1.6931,2.3515
450544,1.6931,2.3507
450545,1.6931,2.3539
450546,1.6939,2.3507
450547,1.6963,2.3539
450548,1.6915,2.3555
450549,1.6931,2.3571
450550,1.6915,2.3555
450551,1.6963,2.3588
450552,1.6907,2.3596
450553,1.6947,2.3555
450554,1.6883,2.3596
450555,1.7012,2.3579
450556,1.6947,2.3596
450557,1.6996,2.3612
450558,1.6979,2.3604
450559,1.6971,2.3741
450560,1.6996,2.3596
450561,1.6931,2.3620
450562,1.6947,2.3668
450563,1.6979,2.3660
450564,1.6939,2.3652
450565,1.6931,2.3974
450566,1.6996,2.3684
450567,1.6988,2.3620
450568,1.6988,2.3684
450569,1.6931,2.3676
450570,1.6971,2.3604
450571,1.6996,2.3700
450572,1.6931,2.3684
450573,1.6963,2.3684
450574,1.6939,2.3716
450575,1.6979,2.3700
450576,1.6996,2.3636
450577,1.6971,2.3725
450578,1.7004,2.3757
450579,1.6971,2.3708
450580,1.7020,2.3749
450581,1.7012,2.3749
450582,1.6988,2.3757
450583,1.7060,2.3805
450584,1.7004,2.3797
450585,1.6955,2.3829
450586,1.6963,2.3813
450587,1.6947,2.3781
450588,1.7004,2.3725
450589,1.6963,2.3870
450590,1.6971,2.3902
450591,1.7012,2.3910
450592,1.6931,2.3853
450593,1.6988,2.3966
450594,1.6979,2.4031
450595,1.6979,2.4103
450596,1.6947,2.4119
450597,1.6996,2.4136
450598,1.7020,2.4248
450599,1.7020,2.4256
450600,1.6979,2.4369
450601,1.6979,2.4522
450602,1.7028,2.4498
450603,1.6971,2.4547
450604,1.7036,2.4651
450605,1.7036,2.4732
450606,1.7060,2.4748
450607,1.7044,2.4925
450608,1.7060,2.5006
450609,1.7044,2.5143
450610,1.7092,2.5151
450611,1.7125,2.5272
450612,1.7149,2.5328
450613,1.7141,2.5417
450614,1.7157,2.5546
450615,1.7149,2.5642
450616,1.7125,2.5739
450617,1.7205,2.5812
450618,1.7100,2.5916
450619,1.7189,2.6021
450620,1.7173,2.6062
450621,1.7173,2.6102
450622,1.7149,2.6263
450623,1.7294,2.6336
450624,1.7310,2.6432
450625,1.7286,2.6513
450626,1.7302,2.6561
450627,1.7366,2.6634
450628,1.7310,2.6714
450629,1.7334,2.6819
450630,1.7366,2.6875
450631,1.7399,2.7230
450632,1.7358,2.7053
450633,1.7415,2.7101
450634,1.7374,2.7158
450635,1.7407,2.7214
450636,1.7423,2.7262
450637,1.7407,2.7391
450638,1.7455,2.7423
450639,1.7431,2.7681
450640,1.7447,2.7536
450641,1.7495,2.7601
450642,1.7439,2.7689
450643,1.7511,2.7722
450644,1.7495,2.7722
450645,1.7544,2.7834
450646,1.7616,2.7875
450647,1.7286,2.7963
450648,1.7495,2.7988
450649,1.7536,2.8020
450650,1.7495,2.8133
450651,1.7479,2.8100
450652,1.7511,2.8197
450653,1.7560,2.8157
450654,1.7584,2.8382
450655,1.7511,2.8318
450656,1.7511,2.8294
450657,1.7592,2.8318
450658,1.7568,2.8350
450659,1.7479,2.8382
450660,1.7536,2.8447
450661,1.7536,2.8455
450662,1.7552,2.8471
450663,1.7527,2.8495
450664,1.7495,2.8616
450665,1.7536,2.8536
450666,1.7511,2.8753
450667,1.7463,2.8608
450668,1.7511,2.8648
450669,1.7511,2.8632
450670,1.7511,2.8681
450671,1.7527,2.8689
450672,1.7471,2.8705
450673,1.7487,2.8729
450674,1.7423,2.8737
450675,1.7423,2.8737
450676,1.7511,2.8753
450677,1.7487,2.8761
450678,1.7463,2.8777
450679,1.7463,2.8753
450680,1.7447,2.8793
450681,1.7455,2.8810
450682,1.7455,2.8810
450683,1.7415,2.8858
450684,1.7431,2.9124
450685,1.7463,2.8737
450686,1.7479,2.8866
450687,1.7407,2.8874
450688,1.7423,2.8874
450689,1.7415,2.8866
450690,1.7399,2.8874
450691,1.7374,2.8874
450692,1.7407,2.8874
450693,1.7399,2.8874
450694,1.7407,2.8874
450695,1.7407,2.8874
450696,1.7382,2.8874
450697,1.7294,2.9003
450698,1.7374,2.8874
450699,1.7382,2.8874
450700,1.7399,2.8874
450701,1.7366,2.8810
450702,1.7366,2.8874
450703,1.7366,2.8874
450704,1.7326,2.8874
450705,1.7334,2.8874
450706,1.7326,2.9116
450707,1.7318,2.9003
450708,1.7318,2.9309
450709,1.7262,2.8874
450710,1.7294,2.8874
450711,1.7237,2.9011
450712,1.7302,2.8874
450713,1.7221,2.9003
450714,1.7350,2.8874
450715,1.7294,2.8874
450716,1.7278,2.8866
450717,1.7286,2.8987
450718,1.7286,2.8874
450719,1.7262,2.8995
450720,1.7245,2.8874
450721,1.7286,2.8995
450722,1.7221,2.9019
450723,1.7253,2.9011
450724,1.7270,2.9229
450725,1.7237,2.9212
450726,1.7221,2.9067
450727,1.7262,2.9027
450728,1.7205,2.9011
450729,1.7205,2.9027
450730,1.7229,2.9132
450731,1.7205,2.9043
450732,1.7157,2.9092
450733,1.7253,2.9027
450734,1.7205,2.9027
450735,1.7189,2.9067
450736,1.7229,2.9035
450737,1.7189,2.9059
450738,1.7229,2.9084
450739,1.7189,2.9043
450740,1.7181,2.9059
450741,1.7181,2.9067
450742,1.7221,2.9067
450743,1.7149,2.9035
450744,1.7221,2.9067
450745,1.7173,2.9051
450746,1.7221,2.9035
450747,1.7173,2.9132
450748,1.7165,2.9148
450749,1.7221,2.9132
450750,1.7197,2.9124
450751,1.7189,2.9011
450752,1.7245,2.9156
450753,1.7189,2.9100
450754,1.7189,2.9092
450755,1.7173,2.9132
450756,1.7237,2.9116
450757,1.7253,2.9092
450758,1.7205,2.8874
450759,1.7221,2.9124
450760,1.7189,2.9059
450761,1.7173,2.9148
450762,1.7205,2.9035
450763,1.7205,2.9051
450764,1.7125,2.9100
450765,1.7253,2.9245
450766,1.7229,2.9132
450767,1.7149,2.9100
450768,1.7229,2.9309
450769,1.7229,2.9140
450770,1.7253,2.9148
450771,1.7197,2.9156
450772,1.7092,2.9196
450773,1.7229,2.9148
450774,1.7205,2.9011
450775,1.7245,2.9196
450776,1.7221,2.9132
450777,1.7157,2.9100
450778,1.7173,2.9116
450779,1.7197,2.9172
450780,1.7205,2.9067
450781,1.7253,2.9156
450782,1.7181,2.9116
450783,1.7253,2.9140
450784,1.7205,2.9124
450785,1.7149,2.9269
450786,1.7149,2.9132
450787,1.7165,2.9059
450788,1.7189,2.9188
450789,1.7205,2.9140
450790,1.7278,2.9269
450791,1.7382,2.9253
450792,1.7229,2.9188
450793,1.7165,2.8753
450794,1.7205,2.9140
450795,1.7189,2.9100
450796,1.7197,2.9124
450797,1.7423,2.9156
450798,1.7116,2.9132
450799,1.7181,2.9108
450800,1.7189,2.9132
450801,1.7205,2.9116
450802,1.7181,2.9140
450803,1.7229,2.9148
450804,1.7253,2.9100
450805,1.7173,2.9116
450806,1.7221,2.9124
450807,1.7189,2.9092
450808,1.7205,2.9084
450809,1.7197,2.9116
450810,1.7205,2.9269
450811,1.7173,2.9100
450812,1.7181,2.9100
450813,1.7221,2.9092
450814,1.7229,2.8745
450815,1.7286,2.9116
450816,1.7205,2.9140
450817,1.7213,2.9051
450818,1.7205,2.9132
450819,1.7189,2.9164
450820,1.7189,2.9100
450821,1.7197,2.9148
450822,1.7221,2.9156
450823,1.7205,2.9188
450824,1.7165,2.9132
450825,1.7237,2.9019
450826,1.7237,2.9124
450827,1.7270,2.9245
450828,1.7237,2.9156
450829,1.7149,2.8810
450830,1.7221,2.9164
450831,1.7229,2.9140
450832,1.7278,2.9148
450833,1.7270,2.9156
450834,1.7173,2.9156
450835,1.7205,2.9140
450836,1.7229,2.9156
450837,1.7197,2.9148
450838,1.7237,2.9253
450839,1.7262,2.9156
450840,1.7237,2.9140
450841,1.7399,2.9180
450842,1.7221,2.9172
450843,1.7286,2.9188
450844,1.7262,2.9221
450845,1.7237,2.9269
450846,1.7253,2.9196
450847,1.7237,2.9358
450848,1.7237,2.9245
450849,1.7205,2.9261
450850,1.7286,2.9221
450851,1.7270,2.9188
450852,1.7237,2.9196
450853,1.7253,2.9100
450854,1.7253,2.9293
450855,1.7270,2.9229
450856,1.7205,2.9148
450857,1.7278,2.9180
450858,1.7221,2.9245
450859,1.7262,2.9229
450860,1.7221,2.9261
450861,1.7189,2.9261
450862,1.7270,2.9269
450863,1.7286,2.9180
450864,1.7197,2.9269
450865,1.7253,2.9269
450866,1.7326,2.9269
450867,1.7270,2.9317
450868,1.7270,2.9269
450869,1.7237,2.9269
450870,1.7205,2.9309
450871,1.7270,2.9285
450872,1.7270,2.9269
450873,1.7278,2.9317
450874,1.7237,2.9309
450875,1.7270,2.9059
450876,1.7229,2.9285
450877,1.7302,2.9277
450878,1.7318,2.9309
450879,1.7270,2.9390
450880,1.7229,2.9325
450881,1.7278,2.9478
450882,1.7237,2.9752
450883,1.7286,2.9309
450884,1.7270,2.9325
450885,1.7286,2.9366
450886,1.7278,2.9245
450887,1.7310,2.9382
450888,1.7270,2.9317
450889,1.7286,2.9374
450890,1.7205,2.9390
450891,1.7253,2.9736
450892,1.7286,2.9398
450893,1.7262,2.9382
450894,1.7270,2.9374
450895,1.7245,2.9358
450896,1.7302,2.9253
450897,1.7270,2.9430
450898,1.7286,2.9366
450899,1.7237,2.9382
450900,1.7278,2.9398
450901,1.7237,2.9422
450902,1.7262,2.9398
450903,1.7294,2.9527
450904,1.7342,2.9406
450905,1.7326,2.9406
450906,1.7270,2.9785
450907,1.7326,2.9438
450908,1.7270,2.9503
450909,1.7326,2.9438
450910,1.7253,2.9398
450911,1.7407,2.9454
450912,1.7294,2.9269
450913,1.7302,2.9422
450914,1.7358,2.9422
450915,1.7278,2.9478
450916,1.7390,2.9559
450917,1.7294,2.9422
450918,1.7334,2.9470
450919,1.7294,2.9486
450920,1.7334,2.9527
450921,1.7358,2.9503
450922,1.7302,2.9454
450923,1.7262,2.9519
450924,1.7286,2.9454
450925,1.7399,2.9519
450926,1.7366,2.9478
450927,1.7350,2.9011
450928,1.7382,2.9527
450929,1.7326,2.9527
450930,1.7326,2.9519
450931,1.7358,2.9503
450932,1.7334,2.9575
450933,1.7318,2.9535
450934,1.7278,2.9116
450935,1.7334,2.9575
450936,1.7358,2.9269
450937,1.7302,2.9543
450938,1.7382,2.9567
450939,1.7382,2.9575
450940,1.7366,2.9615
450941,1.7382,2.9559
450942,1.7366,2.9543
450943,1.7358,2.9599
450944,1.7382,2.9535
450945,1.7358,2.9575
450946,1.7358,2.9567
450947,1.7350,2.9623
450948,1.7407,2.9672
450949,1.7350,2.9615
450950,1.7366,2.9688
450951,1.7399,2.9632
450952,1.7536,2.9672
450953,1.7415,2.9648
450954,1.7399,2.9768
450955,1.7318,2.9261
450956,1.7382,2.9688
450957,1.7382,2.9672
450958,1.7390,2.9728
450959,1.7399,2.9728
450960,1.7382,2.9704
450961,1.7407,2.9632
450962,1.7310,2.9760
450963,1.7399,2.9777
450964,1.7487,2.9785
450965,1.7358,2.9768
450966,1.7382,2.9801
450967,1.7358,2.9809
450968,1.7334,2.9793
450969,1.7423,2.9777
450970,1.7334,2.9801
450971,1.7382,2.9865
450972,1.7399,2.9825
450973,1.7399,2.9809
450974,1.7358,2.9736
450975,1.7350,2.9793
450976,1.7399,2.9809
450977,1.7366,2.9865
450978,1.7407,2.9841
450979,1.7390,2.9833
450980,1.7366,2.9897
450981,1.7407,2.9841
450982,1.7415,2.9922
450983,1.7382,2.9881
450984,1.7382,2.9930
450985,1.7423,2.9922
450986,1.7334,2.9922
450987,1.7407,2.9954
450988,1.7399,2.9938
450989,1.7407,2.9922
450990,1.7390,3.0147
450991,1.7407,2.9954
450992,1.7407,2.9994
450993,1.7407,2.9873
450994,1.7407,2.9954
450995,1.7366,2.9962
450996,1.7374,3.0002
450997,1.7447,2.9962
450998,1.7390,2.9994
450999,1.7382,2.9970
451000,1.7439,3.0002
451001,1.7407,2.9970
451002,1.7407,2.9946
451003,1.7399,2.9954
451004,1.7407,3.0034
451005,1.7407,3.0042
451006,1.7407,3.0034
451007,1.7390,3.0042
451008,1.7399,2.9833
451009,1.7366,3.0042
451010,1.7390,3.0010
451011,1.7382,3.0083
451012,1.7390,3.0042
451013,1.7399,3.0042
451014,1.7318,3.0083
451015,1.7407,3.0051
451016,1.7439,3.0018
451017,1.7382,3.0042
451018,1.7399,3.0051
451019,1.7390,3.0051
451020,1.7407,3.0067
451021,1.7366,3.0147
451022,1.7407,3.0083
451023,1.7366,3.0083
451024,1.7407,3.0059
451025,1.7334,3.0131
451026,1.7382,3.0139
451027,1.7407,3.0067
451028,1.7350,3.0147
451029,1.7423,3.0147
451030,1.7318,3.0099
451031,1.7262,3.0147
451032,1.7407,3.0131
451033,1.7407,3.0099
451034,1.7382,3.0260
451035,1.7407,3.0171
451036,1.7350,3.0196
451037,1.7390,3.0131
451038,1.7366,3.0051
451039,1.7399,3.0252
451040,1.7399,3.0421
451041,1.7399,3.0131
451042,1.7407,3.0034
451043,1.7350,3.0196
451044,1.7334,3.0155
451045,1.7407,3.0188
451046,1.7407,3.0196
451047,1.7390,3.0171
451048,1.7382,3.0171
451049,1.7407,3.0171
451050,1.7229,3.0171
451051,1.7390,3.0300
451052,1.7640,3.0188
451053,1.7431,3.0115
451054,1.7399,3.0171
451055,1.7390,3.0059
451056,1.7382,3.0171
451057,1.7358,3.0179
451058,1.7423,2.9825
451059,1.7463,3.0171
451060,1.7407,3.0300
451061,1.7366,3.0212
451062,1.7407,3.0179
451063,1.7407,3.0196
451064,1.7399,3.0252
451065,1.7407,3.0510
451066,1.7350,3.0212
451067,1.7399,3.0228
451068,1.7382,3.0244
451069,1.7358,3.0252
451070,1.7407,3.0212
451071,1.7431,3.0252
451072,1.7374,3.0228
451073,1.7366,3.0228
451074,1.7334,3.0220
451075,1.7407,3.0244
451076,1.7399,3.0196
451077,1.7382,3.0228
451078,1.7366,3.0188
451079,1.7350,3.0212
451080,1.7382,3.0220
451081,1.7334,3.0179
451082,1.7366,3.0220
451083,1.7350,3.0212
451084,1.7399,3.0220
451085,1.7278,3.0228
451086,1.7407,3.0220
451087,1.7350,3.0220
451088,1.7358,3.0284
451089,1.7358,3.0179
451090,1.7415,3.0292
451091,1.7382,3.0244
451092,1.7310,3.0244
451093,1.7358,3.0212
451094,1.7334,3.0147
451095,1.7326,3.0284
451096,1.7390,3.0292
451097,1.7399,3.0188
451098,1.7334,3.0300
451099,1.7407,3.0228
451100,1.7407,3.0196
451101,1.7390,3.0260
451102,1.7318,3.0260
451103,1.7366,3.0373
451104,1.7350,3.0300
451105,1.7350,3.0196
451106,1.7318,3.0276
451107,1.7374,3.0244
451108,1.7407,3.0212
451109,1.7374,3.0276
451110,1.7318,3.0252
451111,1.7407,3.0268
451112,1.7399,3.0284
451113,1.7390,3.0276
451114,1.7318,3.0316
451115,1.7366,3.0252
451116,1.7350,3.0252
451117,1.7390,3.0228
451118,1.7399,3.0260
451119,1.7318,3.0228
451120,1.7350,3.0228
451121,1.7431,3.0196
451122,1.7326,3.0212
451123,1.7326,3.0292
451124,1.7149,3.0179
451125,1.7350,3.0179
451126,1.7326,3.0179
451127,1.7358,3.0163
451128,1.7326,3.0204
451129,1.7358,3.0123
451130,1.7407,3.0155
451131,1.7294,3.0220
451132,1.7318,3.0196
451133,1.7294,3.0147
451134,1.7326,3.0196
451135,1.7318,3.0155
451136,1.7302,3.0228
451137,1.7302,3.0139
451138,1.7366,3.0244
451139,1.7318,3.0131
451140,1.7302,3.0381
451141,1.7334,3.0188
451142,1.7278,3.0397
451143,1.7294,3.0115
451144,1.7318,3.0131
451145,1.7334,3.0091
451146,1.7310,3.0099
451147,1.7382,3.0123
451148,1.7326,3.0115
451149,1.7326,3.0091
451150,1.7326,3.0131
451151,1.7326,3.0131
451152,1.7318,3.0051
451153,1.7374,3.0051
451154,1.7286,3.0171
451155,1.7318,3.0075
451156,1.7310,3.0042
451157,1.7253,2.9970
451158,1.7302,3.0034
