time_ms,ch1_v,ch2_v
361903,1.7455,2.3507
361904,1.7536,2.3596
361905,1.7447,2.3805
361906,1.7447,2.3588
361907,1.7511,2.3555
361908,1.7431,2.3588
361909,1.7447,2.3547
361910,1.7463,2.3684
361911,1.7431,2.3588
361912,1.7455,2.3596
361913,1.7503,2.3596
361914,1.7431,2.3451
361915,1.7447,2.3539
361916,1.7479,2.3588
361917,1.7447,2.3547
361918,1.7471,2.3539
361919,1.7455,2.3547
361920,1.7479,2.3515
361921,1.7527,2.3523
361922,1.7447,2.3579
361923,1.7463,2.3555
361924,1.7431,2.3539
361925,1.7495,2.3579
361926,1.7560,2.3588
361927,1.7455,2.3588
361928,1.7487,2.3571
361929,1.7463,2.3571
361930,1.7439,2.3612
361931,1.7487,2.3547
361932,1.7487,2.3571
361933,1.7479,2.3523
361934,1.7487,2.3571
361935,1.7431,2.3547
361936,1.7487,2.3579
361937,1.7487,2.3579
361938,1.7568,2.3555
361939,1.7455,2.3596
361940,1.7463,2.3539
361941,1.7471,2.3596
361942,1.7455,2.3588
361943,1.7447,2.3571
361944,1.7487,2.3555
361945,1.7479,2.3596
361946,1.7479,2.3515
361947,1.7463,2.3596
361948,1.7479,2.3547
361949,1.7487,2.3555
361950,1.7439,2.3386
361951,1.7415,2.3563
361952,1.7455,2.3588
361953,1.7447,2.3579
361954,1.7463,2.3588
361955,1.7455,2.3547
361956,1.7415,2.3515
361957,1.7511,2.3571
361958,1.7463,2.3596
361959,1.7487,2.3588
361960,1.7431,2.3596
361961,1.7455,2.3571
361962,1.7511,2.3596
361963,1.7447,2.3579
361964,1.7463,2.3708
361965,1.7431,2.3555
361966,1.7479,2.3571
361967,1.7423,2.3571
361968,1.7455,2.3547
361969,1.7495,2.3539
361970,1.7423,2.3555
361971,1.7487,2.3579
361972,1.7423,2.3555
361973,1.7487,2.3539
361974,1.7439,2.3555
361975,1.7463,2.3579
361976,1.7447,2.3588
361977,1.7431,2.3555
361978,1.7439,2.3563
361979,1.7423,2.3571
361980,1.7407,2.3579
361981,1.7439,2.3588
361982,1.7415,2.3596
361983,1.7479,2.3571
361984,1.7407,2.3555
361985,1.7455,2.3555
361986,1.7415,2.3563
361987,1.7415,2.3555
361988,1.7439,2.3539
361989,1.7407,2.3555
361990,1.7479,2.3507
361991,1.7407,2.3547
361992,1.7423,2.3563
361993,1.7463,2.3596
361994,1.7431,2.3539
361995,1.7479,2.3491
361996,1.7431,2.3596
361997,1.7479,2.3539
361998,1.7487,2.3571
361999,1.7487,2.3596
362000,1.7503,2.3588
362001,1.7479,2.3555
362002,1.7471,2.3596
362003,1.7479,2.3579
362004,1.7479,2.3555
362005,1.7431,2.3636
362006,1.7455,2.3571
362007,1.7511,2.3596
362008,1.7455,2.3588
362009,1.7519,2.3588
362010,1.7479,2.3579
362011,1.7527,2.3571
362012,1.7527,2.3596
362013,1.7455,2.3588
362014,1.7415,2.3547
362015,1.7463,2.3571
362016,1.7503,2.3555
362017,1.7479,2.3579
362018,1.7471,2.3547
362019,1.7455,2.3571
362020,1.7447,2.3571
362021,1.7463,2.3571
362022,1.7463,2.3716
362023,1.7519,2.3596
362024,1.7479,2.3563
362025,1.7407,2.3571
362026,1.7455,2.3539
362027,1.7487,2.3579
362028,1.7487,2.3579
362029,1.7455,2.3571
362030,1.7479,2.3515
362031,1.7423,2.3579
362032,1.7479,2.3579
362033,1.7495,2.3523
362034,1.7447,2.3588
362035,1.7503,2.3604
362036,1.7479,2.3571
362037,1.7447,2.3636
362038,1.7423,2.3515
362039,1.7415,2.3507
362040,1.7415,2.3588
362041,1.7463,2.3588
362042,1.7487,2.3523
362043,1.7407,2.3523
362044,1.7495,2.3555
362045,1.7431,2.3571
362046,1.7431,2.3571
362047,1.7423,2.3515
362048,1.7447,2.3571
362049,1.7495,2.3523
362050,1.7487,2.3563
362051,1.7431,2.3579
362052,1.7511,2.3571
362053,1.7447,2.3596
362054,1.7463,2.3523
362055,1.7423,2.3596
362056,1.7439,2.3515
362057,1.7415,2.3588
362058,1.7463,2.3588
362059,1.7479,2.3467
362060,1.7407,2.3571
362061,1.7455,2.3539
362062,1.7431,2.3491
362063,1.7463,2.3579
362064,1.7455,2.3539
362065,1.7447,2.3555
362066,1.7511,2.3571
362067,1.7455,2.3588
362068,1.7487,2.3596
362069,1.7463,2.3588
362070,1.7511,2.3588
362071,1.7487,2.3555
362072,1.7447,2.3571
362073,1.7455,2.3588
362074,1.7423,2.3523
362075,1.7447,2.3596
362076,1.7511,2.3588
362077,1.7382,2.3596
362078,1.7407,2.3523
362079,1.7536,2.3555
362080,1.7423,2.3588
362081,1.7334,2.3555
362082,1.7487,2.3547
362083,1.7487,2.3579
362084,1.7503,2.3571
362085,1.7463,2.3571
362086,1.7431,2.3555
362087,1.7423,2.3555
362088,1.7479,2.3547
362089,1.7399,2.3547
362090,1.7479,2.3588
362091,1.7519,2.3588
362092,1.7648,2.3588
362093,1.7495,2.3596
362094,1.7447,2.3571
362095,1.7407,2.3579
362096,1.7447,2.3579
362097,1.7455,2.3588
362098,1.7447,2.3596
362099,1.7415,2.3547
362100,1.7479,2.3596
362101,1.7455,2.3410
362102,1.7487,2.3539
362103,1.7463,2.3596
362104,1.7447,2.3515
362105,1.7423,2.3596
362106,1.7463,2.3596
362107,1.7511,2.3515
362108,1.7455,2.3588
362109,1.7407,2.3539
362110,1.7423,2.3547
362111,1.7455,2.3588
362112,1.7495,2.3547
362113,1.7487,2.3596
362114,1.7487,2.3596
362115,1.7463,2.3596
362116,1.7471,2.3563
362117,1.7447,2.3579
362118,1.7431,2.3579
362119,1.7455,2.3571
362120,1.7447,2.3579
362121,1.7407,2.3579
362122,1.7463,2.3547
362123,1.7447,2.3579
362124,1.7463,2.3555
362125,1.7455,2.3555
362126,1.7407,2.3571
362127,1.7415,2.3579
362128,1.7463,2.3725
362129,1.7455,2.3418
362130,1.7463,2.3515
362131,1.7495,2.3725
362132,1.7511,2.3555
362133,1.7463,2.3596
362134,1.7479,2.3588
362135,1.7358,2.3588
362136,1.7423,2.3644
362137,1.7431,2.3523
362138,1.7415,2.3596
362139,1.7511,2.3555
362140,1.7463,2.3547
362141,1.7471,2.3539
362142,1.7431,2.3547
362143,1.7423,2.3588
362144,1.7463,2.3555
362145,1.7447,2.3555
362146,1.7447,2.3579
362147,1.7447,2.3539
362148,1.7447,2.3555
362149,1.7423,2.3579
362150,1.7423,2.3555
362151,1.7447,2.3555
362152,1.7439,2.3596
362153,1.7455,2.3547
362154,1.7479,2.3596
362155,1.7423,2.3547
362156,1.7415,2.3628
362157,1.7415,2.3596
362158,1.7262,2.3491
362159,1.7423,2.3515
362160,1.7423,2.3555
362161,1.7463,2.3547
362162,1.7415,2.3596
362163,1.7415,2.3604
362164,1.7407,2.3571
362165,1.7431,2.3579
362166,1.7407,2.3523
362167,1.7407,2.3571
362168,1.7415,2.3579
362169,1.7463,2.3596
362170,1.7431,2.3555
362171,1.7415,2.3523
362172,1.7407,2.3555
362173,1.7415,2.3555
362174,1.7463,2.3571
362175,1.7431,2.3555
362176,1.7423,2.3797
362177,1.7407,2.3588
362178,1.7382,2.3555
362179,1.7447,2.3555
362180,1.7447,2.3571
362181,1.7431,2.3555
362182,1.7455,2.3579
362183,1.7479,2.3588
362184,1.7431,2.3563
362185,1.7471,2.3563
362186,1.7455,2.3596
362187,1.7447,2.3555
362188,1.7431,2.3588
362189,1.7487,2.3588
362190,1.7447,2.3563
362191,1.7455,2.3571
362192,1.7447,2.3579
362193,1.7479,2.3579
362194,1.7407,2.3555
362195,1.7447,2.3563
362196,1.7455,2.3539
362197,1.7415,2.3579
362198,1.7423,2.3571
362199,1.7455,2.3571
362200,1.7463,2.3579
362201,1.7407,2.3539
362202,1.7471,2.3547
362203,1.7479,2.3547
362204,1.7471,2.3555
362205,1.7439,2.3555
362206,1.7447,2.3547
362207,1.7471,2.3563
362208,1.7407,2.3547
362209,1.7487,2.3652
362210,1.7415,2.3571
362211,1.7479,2.3604
362212,1.7487,2.3596
362213,1.7479,2.3596
362214,1.7463,2.3579
362215,1.7463,2.3596
362216,1.7423,2.3547
362217,1.7656,2.3579
362218,1.7487,2.3571
362219,1.7415,2.3579
362220,1.7407,2.3555
362221,1.7431,2.3563
362222,1.7350,2.3547
362223,1.7431,2.3547
362224,1.7447,2.3539
362225,1.7431,2.3571
362226,1.7431,2.3547
362227,1.7471,2.3588
362228,1.7431,2.3596
362229,1.7487,2.3596
362230,1.7463,2.3620
362231,1.7455,2.3539
362232,1.7447,2.3596
362233,1.7463,2.3596
362234,1.7423,2.3620
362235,1.7439,2.3596
362236,1.7431,2.3588
362237,1.7455,2.3571
362238,1.7495,2.3588
362239,1.7487,2.3588
362240,1.7407,2.3588
362241,1.7479,2.3571
362242,1.7447,2.3555
362243,1.7399,2.3555
362244,1.7447,2.3547
362245,1.7407,2.3571
362246,1.7463,2.3596
362247,1.7447,2.3555
362248,1.7479,2.3563
362249,1.7455,2.3579
362250,1.7479,2.3539
362251,1.7439,2.3579
362252,1.7487,2.3588
362253,1.7455,2.3579
362254,1.7431,2.3596
362255,1.7455,2.3523
362256,1.7415,2.3394
362257,1.7431,2.3596
362258,1.7407,2.3555
362259,1.7455,2.3588
362260,1.7447,2.3644
362261,1.7431,2.3475
362262,1.7463,2.3588
362263,1.7447,2.3636
362264,1.7439,2.3596
362265,1.7407,2.3523
362266,1.7407,2.3563
362267,1.7463,2.3555
362268,1.7415,2.3571
362269,1.7503,2.3579
362270,1.7423,2.3563
362271,1.7423,2.3451
362272,1.7334,2.3596
362273,1.7455,2.3539
362274,1.7407,2.3555
362275,1.7423,2.3539
362276,1.7463,2.3555
362277,1.7455,2.3579
362278,1.7431,2.3588
362279,1.7423,2.3596
362280,1.7407,2.3555
362281,1.7407,2.3588
362282,1.7455,2.3579
362283,1.7407,2.3571
362284,1.7479,2.3563
362285,1.7431,2.3571
362286,1.7431,2.3588
362287,1.7495,2.3571
362288,1.7487,2.3555
362289,1.7407,2.3596
362290,1.7463,2.3547
362291,1.7423,2.3596
362292,1.7407,2.3547
362293,1.7455,2.3555
362294,1.7463,2.3596
362295,1.7447,2.3555
362296,1.7463,2.3571
362297,1.7431,2.3588
362298,1.7455,2.3555
362299,1.7447,2.3588
362300,1.7407,2.3547
362301,1.7455,2.3579
362302,1.7439,2.3596
362303,1.7423,2.3596
362304,1.7431,2.3491
362305,1.7455,2.3579
362306,1.7447,2.3571
362307,1.7447,2.3596
362308,1.7431,2.3547
362309,1.7463,2.3604
362310,1.7407,2.3588
362311,1.7439,2.3596
362312,1.7463,2.3386
362313,1.7423,2.3563
362314,1.7447,2.3571
362315,1.7439,2.3571
362316,1.7407,2.3571
362317,1.7447,2.3555
362318,1.7415,2.3596
362319,1.7415,2.3588
362320,1.7487,2.3547
362321,1.7415,2.3588
362322,1.7447,2.3596
362323,1.7536,2.3596
362324,1.7423,2.3588
362325,1.7463,2.3588
362326,1.7407,2.3596
362327,1.7374,2.3571
362328,1.7455,2.3555
362329,1.7431,2.3571
362330,1.7431,2.3588
362331,1.7399,2.3563
362332,1.7407,2.3596
362333,1.7447,2.3579
362334,1.7423,2.3596
362335,1.7415,2.3596
362336,1.7358,2.3596
362337,1.7423,2.3571
362338,1.7447,2.3362
362339,1.7415,2.3571
362340,1.7423,2.3563
362341,1.7399,2.3571
362342,1.7415,2.3442
362343,1.7407,2.3588
362344,1.7447,2.3579
362345,1.7407,2.3515
362346,1.7455,2.3588
362347,1.7358,2.3588
362348,1.7423,2.3579
362349,1.7407,2.3571
362350,1.7431,2.3588
362351,1.7407,2.3523
362352,1.7415,2.3563
362353,1.7423,2.3547
362354,1.7463,2.3507
362355,1.7447,2.3555
362356,1.7439,2.3596
362357,1.7455,2.3588
362358,1.7463,2.3596
362359,1.7487,2.3555
362360,1.7431,2.3596
362361,1.7407,2.3507
362362,1.7447,2.3604
362363,1.7423,2.3539
362364,1.7439,2.3555
362365,1.7479,2.3451
362366,1.7407,2.3579
362367,1.7431,2.3555
362368,1.7447,2.3555
362369,1.7447,2.3547
362370,1.7431,2.3579
362371,1.7423,2.3515
362372,1.7463,2.3555
362373,1.7415,2.3555
362374,1.7447,2.3555
362375,1.7374,2.3563
362376,1.7431,2.3588
362377,1.7399,2.3555
362378,1.7447,2.3596
362379,1.7415,2.3596
362380,1.7415,2.3571
362381,1.7415,2.3539
362382,1.7423,2.3539
362383,1.7439,2.3523
362384,1.7447,2.3563
362385,1.7415,2.3563
362386,1.7407,2.3579
362387,1.7431,2.3579
362388,1.7431,2.3579
362389,1.7423,2.3588
362390,1.7415,2.3579
362391,1.7463,2.3563
362392,1.7423,2.3571
362393,1.7463,2.3523
362394,1.7407,2.3523
362395,1.7407,2.3523
362396,1.7407,2.3515
362397,1.7463,2.3555
362398,1.7439,2.3539
362399,1.7423,2.3555
362400,1.7431,2.3483
362401,1.7431,2.3571
362402,1.7463,2.3491
362403,1.7399,2.3588
362404,1.7415,2.3475
362405,1.7415,2.3547
362406,1.7407,2.3523
362407,1.7447,2.3523
362408,1.7447,2.3555
362409,1.7407,2.3515
362410,1.7552,2.3612
362411,1.7407,2.3523
362412,1.7519,2.3539
362413,1.7447,2.3523
362414,1.7431,2.3579
362415,1.7431,2.3507
362416,1.7407,2.3523
362417,1.7447,2.3483
362418,1.7415,2.3523
362419,1.7407,2.3547
362420,1.7407,2.3539
362421,1.7407,2.3588
362422,1.7415,2.3555
362423,1.7423,2.3507
362424,1.7415,2.3523
362425,1.7399,2.3588
362426,1.7439,2.3571
362427,1.7399,2.3507
362428,1.7455,2.3499
362429,1.7399,2.3515
362430,1.7407,2.3588
362431,1.7447,2.3459
362432,1.7431,2.3563
362433,1.7423,2.3491
362434,1.7399,2.3547
362435,1.7431,2.3523
362436,1.7423,2.3499
362437,1.7407,2.3467
362438,1.7423,2.3596
362439,1.7390,2.3499
362440,1.7447,2.3507
362441,1.7407,2.3507
362442,1.7431,2.3555
362443,1.7415,2.3507
362444,1.7576,2.3523
362445,1.7382,2.3426
362446,1.7439,2.3547
362447,1.7415,2.3507
362448,1.7423,2.3523
362449,1.7302,2.3523
362450,1.7390,2.3523
362451,1.7447,2.3491
362452,1.7431,2.3563
362453,1.7407,2.3507
362454,1.7423,2.3539
362455,1.7431,2.3596
362456,1.7407,2.3547
362457,1.7455,2.3459
362458,1.7495,2.3507
362459,1.7399,2.3515
362460,1.7407,2.3523
362461,1.7407,2.3523
362462,1.7423,2.3539
362463,1.7407,2.3507
362464,1.7407,2.3507
362465,1.7407,2.3571
362466,1.7415,2.3523
362467,1.7407,2.3475
362468,1.7407,2.3547
362469,1.7407,2.3539
362470,1.7423,2.3483
362471,1.7431,2.3475
362472,1.7447,2.3596
362473,1.7415,2.3539
362474,1.7455,2.3515
362475,1.7350,2.3499
362476,1.7431,2.3475
362477,1.7431,2.3507
362478,1.7407,2.3483
362479,1.7415,2.3507
362480,1.7415,2.3515
362481,1.7423,2.3571
362482,1.7431,2.3475
362483,1.7358,2.3515
362484,1.7407,2.3507
362485,1.7447,2.3515
362486,1.7407,2.3539
362487,1.7463,2.3483
362488,1.7415,2.3483
362489,1.7415,2.3491
362490,1.7415,2.3491
362491,1.7407,2.3483
362492,1.7463,2.3515
362493,1.7407,2.3475
362494,1.7415,2.3515
362495,1.7407,2.3523
362496,1.7407,2.3491
362497,1.7390,2.3483
362498,1.7415,2.3475
362499,1.7390,2.3491
362500,1.7415,2.3539
362501,1.7262,2.3507
362502,1.7431,2.3499
362503,1.7407,2.3515
362504,1.7407,2.3467
362505,1.7399,2.3475
362506,1.7447,2.3507
362507,1.7399,2.3499
362508,1.7423,2.3507
362509,1.7407,2.3483
362510,1.7431,2.3491
362511,1.7431,2.3491
362512,1.7382,2.3499
362513,1.7407,2.3491
362514,1.7399,2.3483
362515,1.7407,2.3499
362516,1.7415,2.3483
362517,1.7415,2.3523
362518,1.7399,2.3442
362519,1.7407,2.3330
362520,1.7407,2.3547
362521,1.7390,2.3491
362522,1.7407,2.3491
362523,1.7390,2.3475
362524,1.7382,2.3483
362525,1.7407,2.3467
362526,1.7390,2.3563
362527,1.7407,2.3475
362528,1.7407,2.3515
362529,1.7423,2.3483
362530,1.7407,2.3547
362531,1.7407,2.3539
362532,1.7399,2.3563
362533,1.7399,2.3507
362534,1.7399,2.3483
362535,1.7399,2.3523
362536,1.7399,2.3507
362537,1.7382,2.3475
362538,1.7366,2.3330
362539,1.7374,2.3523
362540,1.7407,2.3491
362541,1.7407,2.3507
362542,1.7431,2.3467
362543,1.7366,2.3475
362544,1.7390,2.3571
362545,1.7407,2.3515
362546,1.7399,2.3491
362547,1.7407,2.3507
362548,1.7407,2.3491
362549,1.7382,2.3499
362550,1.7318,2.3467
362551,1.7399,2.3491
362552,1.7407,2.3507
362553,1.7407,2.3491
362554,1.7399,2.3515
362555,1.7415,2.3507
362556,1.7407,2.3475
362557,1.7390,2.3579
362558,1.7407,2.3515
362559,1.7382,2.3523
362560,1.7350,2.3499
362561,1.7407,2.3515
362562,1.7407,2.3523
362563,1.7399,2.3507
362564,1.7374,2.3491
362565,1.7382,2.3338
362566,1.7399,2.3386
362567,1.7407,2.3588
362568,1.7374,2.3499
362569,1.7390,2.3442
362570,1.7407,2.3523
362571,1.7407,2.3539
362572,1.7358,2.3507
362573,1.7407,2.3523
362574,1.7374,2.3467
362575,1.7399,2.3547
362576,1.7415,2.3491
362577,1.7447,2.3483
362578,1.7407,2.3515
362579,1.7382,2.3499
362580,1.7399,2.3725
362581,1.7503,2.3475
362582,1.7407,2.3459
362583,1.7407,2.3515
362584,1.7407,2.3507
362585,1.7399,2.3467
362586,1.7407,2.3451
362587,1.7390,2.3475
362588,1.7382,2.3475
362589,1.7366,2.3475
362590,1.7382,2.3483
362591,1.7399,2.3692
362592,1.7358,2.3467
362593,1.7390,2.3451
362594,1.7407,2.3475
362595,1.7382,2.3330
362596,1.7390,2.3491
362597,1.7382,2.3515
362598,1.7407,2.3499
362599,1.7382,2.3499
362600,1.7399,2.3459
362601,1.7366,2.3507
362602,1.7382,2.3475
362603,1.7358,2.3467
362604,1.7382,2.3297
362605,1.7407,2.3491
362606,1.7382,2.3410
362607,1.7390,2.3483
362608,1.7366,2.3459
362609,1.7374,2.3475
362610,1.7294,2.3491
362611,1.7382,2.3418
362612,1.7399,2.3410
362613,1.7399,2.3442
362614,1.7399,2.3483
362615,1.7358,2.3459
362616,1.7326,2.3491
362617,1.7407,2.3475
362618,1.7334,2.3378
362619,1.7407,2.3426
362620,1.7382,2.3483
362621,1.7358,2.3499
362622,1.7399,2.3499
362623,1.7382,2.3442
362624,1.7382,2.3467
362625,1.7382,2.3515
362626,1.7382,2.3459
362627,1.7382,2.3426
362628,1.7350,2.3475
362629,1.7407,2.3483
362630,1.7407,2.3475
362631,1.7382,2.3467
362632,1.7374,2.3451
362633,1.7366,2.3499
362634,1.7382,2.3475
362635,1.7399,2.3475
362636,1.7358,2.3491
362637,1.7399,2.3684
362638,1.7366,2.3475
362639,1.7270,2.3418
362640,1.7358,2.3491
362641,1.7374,2.3459
362642,1.7318,2.3442
362643,1.7334,2.3483
362644,1.7407,2.3491
363873,1.7205,2.3354
363874,1.7165,2.3370
363875,1.7165,2.3394
363875,1.7165,2.3394
363875,1.7165,2.3394
363876,1.7189,2.3362
363877,1.7157,2.3386
363878,1.7205,2.3386
363879,1.7157,2.3346
363880,1.7165,2.3394
363881,1.7205,2.3346
363882,1.7270,2.3362
363883,1.7189,2.3394
363884,1.7181,2.3362
363885,1.7205,2.3338
363886,1.7197,2.3386
363887,1.7270,2.3386
363888,1.7165,2.3338
363889,1.7229,2.3338
363890,1.7173,2.3346
363891,1.7157,2.3354
363892,1.7173,2.3378
363893,1.7149,2.3338
363894,1.7173,2.3338
363895,1.7181,2.3386
363896,1.7165,2.3338
363897,1.7165,2.3338
363898,1.7149,2.3386
363899,1.7181,2.3338
363900,1.7165,2.3378
363901,1.7165,2.3338
363902,1.7189,2.3354
363903,1.7149,2.3338
363904,1.7165,2.3330
363905,1.7165,2.3338
363906,1.7189,2.3330
363907,1.7157,2.3716
363908,1.7205,2.3330
363909,1.7197,2.3338
363910,1.7173,2.3362
363911,1.7213,2.3338
363912,1.7237,2.3338
363913,1.7229,2.3338
363914,1.7205,2.3330
363915,1.7221,2.3322
363916,1.7229,2.3338
363917,1.7141,2.3314
363918,1.7149,2.3442
363919,1.7237,2.3346
363920,1.7173,2.3297
363921,1.7205,2.3305
363922,1.7205,2.3330
363923,1.7100,2.3314
363924,1.7229,2.3338
363925,1.7197,2.3265
363926,1.7165,2.3297
363927,1.7229,2.3289
363928,1.7165,2.3338
363929,1.7237,2.3314
363930,1.7221,2.3314
363931,1.7197,2.3297
363932,1.7189,2.3289
363933,1.7197,2.3330
363934,1.7157,2.3289
363935,1.7270,2.3322
363936,1.7197,2.3225
363937,1.7237,2.3289
363938,1.7245,2.3289
363939,1.7221,2.3314
363940,1.7165,2.3459
363941,1.7423,2.3338
363942,1.7213,2.3297
363943,1.7197,2.3297
363944,1.7205,2.3281
363945,1.7245,2.3297
363946,1.7270,2.3289
363947,1.7181,2.3265
363948,1.7189,2.3305
363949,1.7253,2.3281
363950,1.7213,2.3362
363951,1.7221,2.3289
363952,1.7253,2.3330
363953,1.7278,2.3314
363954,1.7197,2.3217
363955,1.7205,2.3297
363956,1.7237,2.3265
363957,1.7253,2.3265
363958,1.7221,2.3249
363959,1.7221,2.3314
363960,1.7205,2.3314
363961,1.7262,2.3330
363962,1.7262,2.3289
363963,1.7278,2.3112
363964,1.7318,2.3322
363965,1.7270,2.3305
363966,1.7286,2.3265
363967,1.7310,2.3297
363968,1.7229,2.3338
363969,1.7205,2.3281
363970,1.7197,2.3314
363971,1.7270,2.3257
363972,1.7205,2.3233
363973,1.7278,2.3314
363974,1.7245,2.3273
363975,1.7205,2.3305
363976,1.7286,2.3322
363977,1.7253,2.3281
363978,1.7237,2.3297
363979,1.7189,2.3209
363980,1.7237,2.3588
363981,1.7278,2.3257
363982,1.7270,2.3265
363983,1.7229,2.3257
363984,1.7270,2.3265
363985,1.7253,2.3257
363986,1.7270,2.3233
363987,1.7270,2.3265
363988,1.7326,2.3297
363989,1.7286,2.3297
363990,1.7020,2.3249
363991,1.7487,2.3265
363992,1.7278,2.3249
363993,1.7270,2.3233
363994,1.7092,2.3249
363995,1.7270,2.3289
363996,1.7286,2.3297
363997,1.7253,2.3281
363998,1.7294,2.3265
363999,1.7302,2.3225
364000,1.7262,2.3515
364001,1.7286,2.3257
364002,1.7382,2.3233
364003,1.7270,2.3338
364004,1.7278,2.3289
364005,1.7253,2.3289
364006,1.7278,2.3305
364007,1.7278,2.3257
364008,1.7334,2.3281
364009,1.7302,2.3265
364010,1.7302,2.3305
364011,1.7318,2.3265
364012,1.7318,2.3257
364013,1.7278,2.3289
364014,1.7326,2.3281
364015,1.7294,2.3209
364016,1.7302,2.3257
364017,1.7278,2.3241
364018,1.7270,2.3249
364019,1.7270,2.3217
364020,1.7286,2.3072
364021,1.7326,2.3233
364022,1.7294,2.3233
364023,1.7326,2.3209
364024,1.7334,2.3160
364025,1.7318,2.3249
364026,1.7245,2.3241
364027,1.7286,2.3201
364028,1.7334,2.3249
364029,1.7302,2.3225
364030,1.7253,2.3249
364031,1.7334,2.3233
364032,1.7310,2.3225
364033,1.7294,2.3249
364034,1.7286,2.3249
364035,1.7237,2.3233
364036,1.7326,2.3233
364037,1.7302,2.3064
364038,1.7262,2.3249
364039,1.7350,2.3233
364040,1.7286,2.3241
364041,1.7318,2.3330
364042,1.7286,2.3209
364043,1.7358,2.3257
364044,1.7278,2.3168
364045,1.7286,2.3233
364046,1.7294,2.3209
364047,1.7310,2.3249
364048,1.7334,2.3217
364049,1.7294,2.3265
364050,1.7278,2.3241
364051,1.7286,2.3257
364052,1.7237,2.3209
364053,1.7302,2.3136
364054,1.7326,2.3289
364055,1.7278,2.3233
364056,1.7318,2.3217
364057,1.7302,2.3217
364058,1.7310,2.3225
364059,1.7366,2.3209
364060,1.7439,2.3233
364061,1.7278,2.3209
364062,1.7326,2.3241
364063,1.7302,2.3233
364064,1.7358,2.3426
364065,1.7286,2.3209
364066,1.7342,2.3233
364067,1.7358,2.3193
364068,1.7278,2.3241
364069,1.7302,2.3314
364070,1.7286,2.3225
364071,1.7149,2.3185
364072,1.7221,2.3217
364073,1.7302,2.3225
364074,1.7342,2.3201
364075,1.7407,2.3225
364076,1.7294,2.3201
364077,1.7326,2.3217
364078,1.7302,2.3193
364079,1.7310,2.3209
364080,1.7262,2.3104
364081,1.7326,2.3193
364082,1.7318,2.3201
364083,1.7318,2.3209
364084,1.7334,2.3217
364085,1.7334,2.3201
364086,1.7286,2.3177
364087,1.7302,2.3209
364088,1.7318,2.3209
364089,1.7407,2.3193
364090,1.7318,2.3201
364091,1.7366,2.3177
364092,1.7286,2.3209
364093,1.7302,2.3168
364094,1.7302,2.3201
364095,1.7310,2.3201
364096,1.7350,2.3209
364097,1.7358,2.3193
364098,1.7334,2.3209
364099,1.7390,2.3168
364100,1.7350,2.3193
364101,1.7278,2.3209
364102,1.7366,2.3209
364103,1.7173,2.3217
364104,1.7334,2.3209
364105,1.7350,2.3209
364106,1.7310,2.3249
364107,1.7302,2.3168
364108,1.7366,2.3209
364109,1.7334,2.3201
364110,1.7334,2.3249
364111,1.7278,2.3217
364112,1.7366,2.3225
364113,1.7318,2.3346
364114,1.7302,2.3209
364115,1.7358,2.3201
364116,1.7423,2.3209
364117,1.7318,2.3233
364118,1.7302,2.3297
364119,1.7286,2.3257
364120,1.7270,2.3233
364121,1.7326,2.3209
364122,1.7350,2.3241
364123,1.7278,2.3225
364124,1.7358,2.3233
364125,1.7366,2.3217
364126,1.7382,2.3281
364127,1.7350,2.3225
364128,1.7374,2.3168
364129,1.7358,2.3201
364130,1.7302,2.3225
364131,1.7286,2.3338
364132,1.7165,2.3233
364133,1.7334,2.3265
364134,1.7568,2.3314
364135,1.7334,2.3281
364136,1.7358,2.3273
364137,1.7326,2.3281
364138,1.7302,2.3289
364139,1.7374,2.3265
364140,1.7366,2.3257
364141,1.7382,2.3314
364142,1.7334,2.3297
364143,1.7382,2.3297
364144,1.7350,2.3330
364145,1.7334,2.3314
364146,1.7310,2.3249
364147,1.7278,2.3297
364148,1.7366,2.3297
364149,1.7382,2.3338
364150,1.7334,2.3281
364151,1.7374,2.3217
364152,1.7374,2.3314
364153,1.7350,2.3338
364154,1.7390,2.3338
364155,1.7358,2.3314
364156,1.7237,2.3314
364157,1.7326,2.3330
364158,1.7334,2.3571
364159,1.7399,2.3322
364160,1.7358,2.3338
364161,1.7415,2.3338
364162,1.7366,2.3257
364163,1.7326,2.3305
364164,1.7334,2.3338
364165,1.7318,2.3322
364166,1.7326,2.3330
364167,1.7334,2.3346
364168,1.7350,2.3289
364169,1.7310,2.3322
364170,1.7407,2.3330
364171,1.7350,2.3322
364172,1.7390,2.3297
364173,1.7358,2.3314
364174,1.7326,2.3314
364175,1.7358,2.3354
364176,1.7334,2.3305
364177,1.7310,2.3322
364178,1.7358,2.3354
364179,1.7334,2.3314
364180,1.7326,2.3346
364181,1.7334,2.3297
364182,1.7350,2.3314
364183,1.7399,2.3314
364184,1.7366,2.3314
364185,1.7382,2.3297
364186,1.7407,2.3338
364187,1.7390,2.3289
364188,1.7342,2.3297
364189,1.7374,2.3314
364190,1.7390,2.3297
364191,1.7334,2.3305
364192,1.7326,2.3305
364193,1.7390,2.3322
364194,1.7350,2.3322
364195,1.7390,2.3330
364196,1.7358,2.3314
364197,1.7374,2.3330
364198,1.7334,2.3322
364199,1.7350,2.3322
364200,1.7366,2.3314
364201,1.7366,2.3314
364202,1.7399,2.3289
364203,1.7374,2.3338
364204,1.7350,2.3314
364205,1.7334,2.3338
364206,1.7407,2.3265
364207,1.7390,2.3322
364208,1.7358,2.3289
364209,1.7399,2.3297
364210,1.7318,2.3305
364211,1.7407,2.3314
364212,1.7382,2.3314
364213,1.7358,2.3330
364214,1.7407,2.3297
364215,1.7366,2.3265
364216,1.7334,2.3314
364217,1.7399,2.3330
364218,1.7382,2.3338
364219,1.7407,2.3330
364220,1.7318,2.3338
364221,1.7262,2.3265
364222,1.7318,2.3297
364223,1.7407,2.3330
364224,1.7382,2.3523
364225,1.7366,2.3233
364226,1.7407,2.3330
364227,1.7407,2.3281
364228,1.7358,2.3225
364229,1.7366,2.3314
364230,1.7286,2.3265
364231,1.7407,2.3330
364232,1.7358,2.3193
364233,1.7399,2.3314
364234,1.7407,2.3305
364235,1.7544,2.3289
364236,1.7415,2.3314
364237,1.7366,2.3305
364238,1.7390,2.3338
364239,1.7423,2.3314
364240,1.7407,2.3314
364241,1.7382,2.3297
364242,1.7310,2.3330
364243,1.7399,2.3314
364244,1.7399,2.3314
364245,1.7390,2.3330
364246,1.7447,2.3305
364247,1.7407,2.3305
364248,1.7399,2.3322
364249,1.7382,2.3297
364250,1.7407,2.3322
364251,1.7366,2.3289
364252,1.7447,2.3314
364253,1.7407,2.3346
364254,1.7423,2.3322
364255,1.7302,2.3338
364256,1.7431,2.3346
364257,1.7415,2.3297
364258,1.7407,2.3338
364259,1.7544,2.3322
364260,1.7415,2.3338
364261,1.7407,2.3338
364262,1.7423,2.3330
364263,1.7415,2.3322
364264,1.7415,2.3338
364265,1.7479,2.3338
364266,1.7407,2.3636
364267,1.7407,2.3314
364268,1.7447,2.3338
364269,1.7431,2.3209
364270,1.7447,2.3362
364271,1.7423,2.3362
364272,1.7423,2.3362
364273,1.7415,2.3314
364274,1.7447,2.3354
364275,1.7455,2.3362
364276,1.7439,2.3386
364277,1.7415,2.3362
364278,1.7407,2.3370
364279,1.7382,2.3588
364280,1.7439,2.3386
364281,1.7447,2.3386
364282,1.7431,2.3386
364283,1.7439,2.3394
364284,1.7407,2.3467
364285,1.7399,2.3378
364286,1.7455,2.3451
364287,1.7407,2.3459
364288,1.7407,2.3386
364289,1.7431,2.3442
364290,1.7463,2.3942
364291,1.7447,2.3451
364292,1.7415,2.3451
364293,1.7487,2.3434
364294,1.7423,2.3483
364295,1.7616,2.3483
364296,1.7519,2.3475
364297,1.7294,2.3491
364298,1.7487,2.3442
364299,1.7423,2.3483
364300,1.7479,2.3507
364301,1.7318,2.3507
364302,1.7463,2.3330
364303,1.7503,2.3523
364304,1.7511,2.3571
364305,1.7463,2.3539
364306,1.7487,2.3563
364307,1.7455,2.3547
364308,1.7415,2.3579
364309,1.7495,2.3571
364310,1.7463,2.3571
364311,1.7463,2.3588
364312,1.7455,2.3571
364313,1.7544,2.3596
364314,1.7415,2.3604
364315,1.7447,2.3394
364316,1.7544,2.3596
364317,1.7503,2.3708
364318,1.7495,2.3596
364319,1.7536,2.3612
364320,1.7519,2.3652
364321,1.7487,2.3725
364322,1.7536,2.3700
364323,1.7527,2.3716
364324,1.7318,2.3676
364325,1.7519,2.3725
364326,1.7527,2.3579
364327,1.7536,2.3765
364328,1.7536,2.3741
364329,1.7503,2.3765
364330,1.7689,2.3813
364331,1.7487,2.3813
364332,1.7495,2.3773
364333,1.7536,2.3837
364334,1.7536,2.3845
364335,1.7527,2.3837
364336,1.7527,2.3853
364337,1.7511,2.3894
364338,1.7536,2.3741
364339,1.7503,2.3942
364340,1.7536,2.3966
364341,1.7592,2.4015
364342,1.7495,2.4007
364343,1.7536,2.4071
364344,1.7536,2.4353
364345,1.7544,2.4160
364346,1.7552,2.4136
364347,1.7560,2.4200
364348,1.7624,2.4498
364349,1.7584,2.4256
364350,1.7616,2.4369
364351,1.7608,2.4345
364352,1.7592,2.4377
364353,1.7624,2.4410
364354,1.7616,2.4458
364355,1.7576,2.4538
364356,1.7584,2.4611
364357,1.7664,2.4635
364358,1.7648,2.4651
364359,1.7664,2.4708
364360,1.7632,2.4845
364361,1.7656,2.4877
364362,1.7632,2.4885
364363,1.7664,2.4998
364364,1.7673,2.5070
364365,1.7648,2.5054
364366,1.7705,2.5127
364367,1.7673,2.5143
364368,1.7705,2.5191
364369,1.7705,2.5215
364370,1.7664,2.5280
364371,1.7737,2.5288
364372,1.7681,2.5401
364373,1.7777,2.5425
364374,1.7761,2.5715
364375,1.7753,2.5602
364376,1.7753,2.5538
364377,1.7793,2.5634
364378,1.7785,2.5651
364379,1.7689,2.5683
364380,1.7882,2.5683
364381,1.7801,2.5812
364382,1.7898,2.5804
364383,1.7890,2.5876
364384,1.7785,2.5908
364385,1.7810,2.5973
364386,1.7874,2.6037
364387,1.7777,2.6094
364388,1.7697,2.6150
364389,1.7818,2.6174
364390,1.7834,2.6094
364391,1.7914,2.6271
364392,1.7882,2.6344
364393,1.7890,2.6376
364394,1.7906,2.6416
364395,1.7842,2.6537
364396,1.7834,2.6537
364397,1.7874,2.6513
364398,1.7785,2.6569
364399,1.7914,2.6618
364400,1.7890,2.6682
364401,1.7922,2.6666
364402,1.7834,2.6714
364403,1.7882,2.6763
364404,1.7866,2.6763
364405,1.7938,2.6811
364406,1.7914,2.6859
364407,1.8027,2.6867
364408,1.7882,2.7021
364409,1.7938,2.7021
364410,1.7922,2.6948
364411,1.7922,2.6996
364412,1.7922,2.6988
364413,1.7906,2.6932
364414,1.7922,2.7045
364415,1.7834,2.7069
364416,1.7947,2.7029
364417,1.7971,2.7117
364418,1.7914,2.7158
364419,1.7971,2.7125
364420,1.7971,2.7198
364421,1.7930,2.7182
364422,1.7995,2.7206
364423,1.7922,2.7206
364424,1.7971,2.7238
364425,1.8043,2.7254
364426,1.7930,2.7246
364427,1.7914,2.7311
364428,1.7938,2.7319
364429,1.7922,2.7423
364430,1.7955,2.7286
364431,1.7922,2.7327
364432,1.7874,2.7375
364433,1.7922,2.7327
364434,1.7938,2.7351
364435,1.7938,2.7391
364436,1.7922,2.7383
364437,1.7979,2.7423
364438,1.7995,2.7423
364439,1.7922,2.7456
364440,1.7922,2.7464
364441,1.7914,2.7456
364442,1.7922,2.7464
364443,1.7947,2.7472
364444,1.7930,2.7609
364445,1.7963,2.7464
364446,1.7979,2.7504
364447,1.7955,2.7464
364448,1.7947,2.7472
364449,1.7938,2.7464
364450,1.7922,2.7480
364451,1.7938,2.7512
364452,1.7963,2.7504
364453,1.7922,2.7504
364454,1.7922,2.7311
364455,1.8003,2.7480
364456,1.7971,2.7407
364457,1.7963,2.7520
364458,1.7834,2.7512
364459,1.7842,2.7359
364460,1.7930,2.7488
364461,1.7938,2.7480
364462,1.7922,2.7504
364463,1.7930,2.7440
364464,1.8027,2.7343
364465,1.7922,2.7456
364466,1.7922,2.7432
364467,1.7979,2.7456
364468,1.7914,2.7448
364469,1.7914,2.7343
364470,1.7947,2.7327
364471,1.7850,2.7262
364472,1.7882,2.7230
364473,1.7922,2.7286
364474,1.7922,2.7198
364475,1.7914,2.7117
364476,1.7938,2.7093
364477,1.7874,2.6964
364478,1.7834,2.6948
364479,1.7906,2.6875
364480,1.7850,2.6827
364481,1.7842,2.6771
364482,1.7769,2.6682
364483,1.7810,2.6618
364484,1.7850,2.6513
364485,1.7850,2.6456
364486,1.7874,2.6344
364487,1.7898,2.6263
364488,1.7922,2.6126
364489,1.7793,2.6070
364490,1.7793,2.5941
364491,1.7818,2.5812
364492,1.7777,2.5683
364493,1.7777,2.5546
364494,1.7769,2.5401
364495,1.7761,2.5199
364496,1.7721,2.5006
364497,1.7705,2.4941
364498,1.7681,2.4627
364499,1.7664,2.4482
364500,1.7753,2.4385
364501,1.7681,2.4361
364502,1.7753,2.4297
364503,1.7689,2.4240
364504,1.7664,2.4313
364505,1.7673,2.4216
364506,1.7648,2.4224
364507,1.7753,2.4240
364508,1.7664,2.4240
364509,1.7664,2.4240
364510,1.7664,2.4216
364511,1.7689,2.4240
364512,1.7664,2.4240
364513,1.7697,2.4264
364514,1.7664,2.4136
364515,1.7705,2.4281
364516,1.7689,2.4240
364517,1.7592,2.4281
364518,1.7689,2.4111
364519,1.7681,2.4297
364520,1.7705,2.4297
364521,1.7664,2.4281
364522,1.7705,2.4466
364523,1.7664,2.4297
364524,1.7648,2.4289
364525,1.7664,2.4289
364526,1.7721,2.4248
364527,1.7664,2.4256
364528,1.7673,2.4281
364529,1.7697,2.4216
364530,1.7705,2.4248
364531,1.7584,2.4289
364532,1.7681,2.4248
364533,1.7697,2.4248
364534,1.7664,2.4232
364535,1.7681,2.4232
364536,1.7785,2.4216
364537,1.7697,2.4232
364538,1.7745,2.4192
364539,1.7705,2.4240
364540,1.7664,2.4119
364541,1.7713,2.4232
364542,1.7769,2.4224
364543,1.7648,2.4224
364544,1.7777,2.4232
364545,1.7721,2.4184
364546,1.7713,2.4232
364547,1.7713,2.4168
364548,1.7745,2.4208
364549,1.7689,2.4176
364550,1.7697,2.4160
364551,1.7777,2.4192
364552,1.7616,2.4232
364553,1.7705,2.4208
364554,1.7753,2.4192
364555,1.7664,2.4192
364556,1.7713,2.4144
364557,1.7689,2.3837
364558,1.7673,2.4160
364559,1.7745,2.4168
364560,1.7753,2.4087
364561,1.7777,2.4192
364562,1.7721,2.4176
364563,1.7818,2.4184
364564,1.7745,2.4152
364565,1.7777,2.4136
364566,1.7705,2.4136
364567,1.7737,2.4127
364568,1.7721,2.3902
364569,1.7753,2.4136
364570,1.7705,2.4136
364571,1.7689,2.4152
364572,1.7850,2.4152
364573,1.7753,2.4168
364574,1.7737,2.4144
364575,1.7785,2.4127
364576,1.7721,2.4168
364577,1.7737,2.4136
364578,1.7785,2.4168
364579,1.7753,2.4127
364580,1.7810,2.4160
364581,1.7753,2.4111
364582,1.7761,2.4160
364583,1.7753,2.4152
364584,1.7785,2.4160
364585,1.7753,2.4136
364586,1.7737,2.4160
364587,1.7753,2.4111
364588,1.7785,2.4184
364589,1.7721,2.4313
364590,1.7753,2.4208
364591,1.7664,2.4192
364592,1.7769,2.4168
364593,1.7769,2.4192
364594,1.7745,2.3862
364595,1.7801,2.4297
364596,1.7810,2.4192
364597,1.7769,2.4168
364598,1.7713,2.4184
364599,1.7761,2.4184
364600,1.7801,2.4208
364601,1.7608,2.4240
364602,1.7793,2.4192
364603,1.7769,2.4232
364604,1.7801,2.4216
364605,1.7616,2.4216
364606,1.7753,2.4240
364607,1.7785,2.4208
364608,1.7793,2.4248
364609,1.7785,2.4232
364610,1.7834,2.4240
364611,1.7801,2.4369
364612,1.7818,2.4232
364613,1.7826,2.4281
364614,1.7785,2.4240
364615,1.7777,2.4264
364616,1.7753,2.4264
364617,1.7818,2.4289
364618,1.7793,2.4297
364619,1.7930,2.4264
364620,1.7753,2.4329
364621,1.7834,2.4256
364622,1.7753,2.4329
364623,1.7793,2.4361
364624,1.7834,2.4369
364625,1.7777,2.4410
364626,1.7810,2.4393
364627,1.7793,2.4369
364628,1.7818,2.4369
364629,1.7592,2.4410
364630,1.7810,2.4442
364631,1.7793,2.4418
364632,1.7721,2.4458
364633,1.7745,2.4458
364634,1.7793,2.4506
364635,1.7810,2.4490
364636,1.7801,2.4506
364637,1.7810,2.4538
364638,1.7810,2.4547
364639,1.7793,2.4611
364640,1.7914,2.4611
364641,1.7777,2.4627
364642,1.7826,2.4643
364643,1.7810,2.4555
364644,1.7898,2.4684
364645,1.7850,2.4700
364646,1.7801,2.4708
364647,1.7793,2.4748
364648,1.7882,2.4748
364649,1.7777,2.4877
364650,1.7866,2.4925
364651,1.7906,2.5014
364652,1.7922,2.5022
364653,1.7842,2.5062
364654,1.7882,2.5127
364655,1.7866,2.5167
364656,1.7842,2.5159
364657,1.7922,2.5272
364658,1.7922,2.5232
364659,1.7922,2.5223
364660,1.7866,2.5449
364661,1.7818,2.5441
364662,1.7930,2.5505
364663,1.7906,2.5602
364664,1.7938,2.5642
364665,1.7890,2.5667
364666,1.7898,2.5683
364667,1.7922,2.5715
364668,1.7971,2.5796
364669,1.7689,2.5812
364670,1.7930,2.5804
364671,1.7979,2.5900
364672,1.7922,2.5949
364673,1.7938,2.5981
364674,1.7914,2.6037
364675,1.7947,2.6134
364676,1.7930,2.6207
364677,1.7947,2.5916
364678,1.7938,2.6247
364679,1.7947,2.6311
364680,1.8011,2.6408
364681,1.8003,2.6392
364682,1.8027,2.6384
364683,1.8043,2.6561
364684,1.7995,2.6537
364685,1.7947,2.6650
364686,1.8003,2.6827
364687,1.8027,2.6859
364688,1.8188,2.6964
364689,1.8124,2.7149
364690,1.8092,2.7351
364691,1.8035,2.7568
364692,1.8108,2.7778
364693,1.8051,2.8028
364694,1.8156,2.8245
364695,1.8051,2.8511
364696,1.8067,2.8705
364697,1.8148,2.8874
364698,1.8180,2.9156
364699,1.8059,2.9358
364700,1.8172,2.9607
364701,1.8196,2.9785
364702,1.8196,2.9656
364703,1.8269,3.0220
364704,1.8221,3.0437
364705,1.8237,3.0574
364706,1.8148,3.0695
364707,1.8261,3.0856
364708,1.8317,3.1074
364709,1.8301,3.1203
364710,1.8229,3.1437
364711,1.8349,3.1549
364712,1.8333,3.1743
364713,1.8422,3.1848
364714,1.8422,3.1952
364715,1.8366,3.2130
364716,1.8422,3.2226
364717,1.8438,3.2307
364718,1.8422,3.2613
364719,1.8438,3.2500
364720,1.8430,3.2565
364721,1.8430,3.2621
364722,1.8470,3.2742
364723,1.8438,3.2750
364724,1.8438,3.2855
364725,1.8438,3.2879
364726,1.8454,3.2871
364727,1.8446,3.2903
364728,1.8454,3.2927
364729,1.8454,3.2879
364730,1.8454,3.2968
364731,1.8438,3.2911
364732,1.8462,3.2919
364733,1.8438,3.2911
364734,1.8414,3.2911
364735,1.8414,3.2871
364736,1.8462,3.2887
364737,1.8438,3.2879
364738,1.8430,3.2807
364739,1.8438,3.2847
364740,1.8390,3.2831
364741,1.8349,3.2750
364742,1.8390,3.2758
364743,1.8406,3.2516
364744,1.8325,3.2758
364745,1.8382,3.2726
364746,1.8422,3.2637
364747,1.8366,3.2597
364748,1.8382,3.2597
364749,1.8309,3.2573
364750,1.8325,3.2492
364751,1.8325,3.2476
364752,1.8285,3.2404
364753,1.8358,3.2404
364754,1.8221,3.2339
364755,1.8237,3.2355
364756,1.8221,3.2291
364757,1.8221,3.2017
364758,1.8180,3.2259
364759,1.8317,3.2218
364760,1.8180,3.2154
364761,1.8382,3.2114
364762,1.8172,3.2234
364763,1.8132,3.2138
364764,1.8140,3.2073
364765,1.8140,3.2065
364766,1.8148,3.2081
364767,1.8092,3.2001
364768,1.8124,3.1928
364769,1.8100,3.1864
364770,1.8043,3.1856
364771,1.8092,3.1856
364772,1.8100,3.1880
364773,1.8075,3.1807
364774,1.8067,3.1711
364775,1.8035,3.1767
364776,1.7995,3.1775
364777,1.8003,3.2210
364778,1.8051,3.1670
364779,1.7979,3.1678
364780,1.7995,3.1614
364781,1.7979,3.1614
364782,1.7971,3.1638
364783,1.8156,3.1582
364784,1.7979,3.1574
364785,1.7947,3.1509
364786,1.7947,3.1348
364787,1.7955,3.1485
364788,1.7930,3.1590
364789,1.7906,3.1453
364790,1.7938,3.1412
364791,1.7947,3.1380
364792,1.7922,3.1058
364793,1.7914,3.1259
364794,1.7922,3.1227
364795,1.7898,3.1163
364796,1.7914,3.1082
364797,1.7914,3.1034
364798,1.7834,3.1026
364799,1.7906,3.0937
364800,1.7850,3.0913
364801,1.7850,3.0832
364802,1.7850,3.0816
364803,1.7826,3.0695
364804,1.7801,3.0744
364805,1.7810,3.0711
364806,1.7777,3.0711
364807,1.7850,3.0599
364808,1.7793,3.0695
364809,1.7810,3.0590
364810,1.7793,3.0647
364811,1.7777,3.0615
364812,1.7818,3.0615
364813,1.7737,3.0615
364814,1.7777,3.0615
364815,1.7785,3.0349
364816,1.7801,3.0582
364817,1.7745,3.0574
364818,1.7761,3.0615
364819,1.7850,3.0566
364820,1.7761,3.0421
364821,1.7769,3.0631
364822,1.7793,3.0590
364823,1.7761,3.0590
364824,1.7801,3.0679
364825,1.7761,3.0679
364826,1.7713,3.0744
364827,1.7745,3.1026
364828,1.7697,3.0768
364829,1.7777,3.0816
364830,1.7689,3.0776
364831,1.7648,3.0824
364832,1.7777,3.0792
364833,1.7705,3.0873
364834,1.7745,3.0897
364835,1.7713,3.0889
364836,1.7681,3.0969
364837,1.7689,3.0969
364838,1.7769,3.0961
364839,1.7705,3.1018
364840,1.7737,3.1001
364841,1.7697,3.1018
364842,1.7648,3.1082
364843,1.7745,3.1001
364844,1.7689,3.0905
364845,1.7664,3.1074
364846,1.7648,3.1074
364847,1.7664,3.1098
364848,1.7664,3.1090
364849,1.7697,3.1147
364850,1.7664,3.1195
364851,1.7664,3.1227
364852,1.7713,3.1235
364853,1.7721,3.1292
364854,1.7697,3.1332
364855,1.7673,3.1453
364856,1.7624,3.1469
364857,1.7673,3.1517
364858,1.7681,3.1606
364859,1.7713,3.1670
364860,1.7713,3.1719
364861,1.7681,3.1767
364862,1.7721,3.1864
364863,1.7737,3.1767
364864,1.7656,3.1968
364865,1.7544,3.2033
364866,1.7664,3.2089
364867,1.7689,3.2210
364868,1.7689,3.2105
364869,1.7705,3.2363
364870,1.7673,3.2283
364871,1.7664,3.2597
364872,1.7447,3.2363
364873,1.7664,3.2404
364874,1.7785,3.2492
364875,1.7745,3.2492
364876,1.7681,3.2960
364877,1.7664,3.2670
364878,1.7664,3.2653
364879,1.7705,3.2678
364880,1.7673,3.2758
364881,1.7673,3.2799
364882,1.7721,3.2790
364883,1.7681,3.2807
364884,1.7689,3.2863
364885,1.7624,3.2879
364886,1.7664,3.2952
364887,1.7705,3.2984
364888,1.7664,3.3000
364889,1.7689,3.3000
364890,1.7689,3.3000
364891,1.7673,3.3000
364892,1.7656,3.3000
364893,1.7632,3.3000
364894,1.7664,3.3000
364895,1.7681,3.3000
364896,1.7664,3.3000
364897,1.7648,3.3000
364898,1.7664,3.3000
364899,1.7592,3.3000
364900,1.7616,3.3000
364901,1.7681,3.3000
364902,1.7640,3.3000
364903,1.7664,3.3000
364904,1.7664,3.3000
364905,1.7616,3.3000
364906,1.7624,3.3000
364907,1.7592,3.3000
364908,1.7681,3.3000
364909,1.7640,3.3000
364910,1.7584,3.3000
364911,1.7592,3.3000
364912,1.7527,3.3000
364913,1.7689,3.3000
364914,1.7632,3.3000
364915,1.7640,3.3000
364916,1.7608,3.3000
364917,1.7608,3.3000
364918,1.7576,3.3000
364919,1.7640,3.3000
364920,1.7544,3.3000
364921,1.7640,3.3000
364922,1.7576,3.3000
364923,1.7624,3.3000
364924,1.7584,3.3000
364925,1.7592,3.3000
364926,1.7568,3.3000
364927,1.7519,3.3000
364928,1.7576,3.3000
364929,1.7624,3.3000
364930,1.7536,3.3000
364931,1.7552,3.3000
364932,1.7544,3.3000
364933,1.7536,3.3000
364934,1.7479,3.3000
364935,1.7479,3.3000
364936,1.7664,3.3000
364937,1.7527,3.2839
364938,1.7536,3.3000
364939,1.7495,3.3000
364940,1.7519,3.3000
364941,1.7455,3.3000
364942,1.7479,3.3000
364943,1.7503,3.3000
364944,1.7431,3.3000
364945,1.7487,3.3000
364946,1.7511,3.3000
364947,1.7439,3.3000
364948,1.7447,3.3000
364949,1.7463,3.3000
364950,1.7527,3.3000
364951,1.7447,3.2952
364952,1.7455,3.2919
364953,1.7407,3.3000
364954,1.7648,3.2976
364955,1.7447,3.2936
364956,1.7407,3.2984
364957,1.7399,3.2960
364958,1.7463,3.3000
364959,1.7495,3.2879
364960,1.7407,3.2823
364961,1.7407,3.2871
364962,1.7399,3.2774
364963,1.7415,3.2758
364964,1.7415,3.2670
364965,1.7407,3.2621
364966,1.7374,3.2613
364967,1.7382,3.2508
364968,1.7382,3.2396
364969,1.7407,3.2315
364970,1.7455,3.2105
364971,1.7334,3.1880
364972,1.7358,3.1590
364973,1.7326,3.1348
364974,1.7302,3.1066
364975,1.7012,3.0808
364976,1.7253,3.0357
364977,1.7286,3.0067
364978,1.7278,2.9777
364979,1.7270,2.9454
364980,1.7165,2.9196
364981,1.7334,2.8793
364982,1.7149,2.8536
364983,1.7100,2.8221
364984,1.7141,2.8092
364985,1.7125,2.7810
364986,1.7036,2.7568
364987,1.7108,2.7375
364988,1.7020,2.7166
364989,1.7060,2.6956
364990,1.7004,2.6819
364991,1.7020,2.6634
364992,1.7020,2.6440
364993,1.6979,2.6327
364994,1.6931,2.6166
364995,1.7012,2.6094
364996,1.6996,2.5916
364997,1.6947,2.5788
364998,1.6907,2.5634
364999,1.7108,2.5546
365000,1.6891,2.5409
365001,1.6931,2.5328
365002,1.6891,2.5264
365003,1.6891,2.5127
365004,1.6891,2.5046
365005,1.7012,2.4941
365006,1.6931,2.4885
365007,1.6875,2.4732
365008,1.6899,2.4675
365009,1.6851,2.4611
365010,1.6875,2.4538
365011,1.6875,2.4474
365012,1.6834,2.4466
365013,1.6818,2.4361
365014,1.6875,2.4369
365015,1.6907,2.4248
365016,1.6891,2.4216
365017,1.6834,2.4111
365018,1.6851,2.4111
365019,1.6891,2.4031
365020,1.6883,2.4023
365021,1.6842,2.3974
365022,1.6842,2.3894
365023,1.6842,2.3870
365024,1.6867,2.3797
365025,1.6818,2.3781
365026,1.6842,2.3918
365027,1.6842,2.3733
365028,1.6931,2.3741
365029,1.6891,2.3676
365030,1.6818,2.3636
365031,1.6875,2.3628
365032,1.6867,2.3620
365033,1.6891,2.3579
365034,1.6851,2.3555
365035,1.6891,2.3515
365036,1.6907,2.3491
365037,1.6875,2.3507
365038,1.6851,2.3523
365039,1.6875,2.3459
365040,1.6907,2.3354
365041,1.6762,2.3426
365042,1.6883,2.3209
365043,1.6891,2.3338
365044,1.6891,2.3338
365045,1.6915,2.3338
365046,1.6899,2.3297
365047,1.6899,2.3297
365048,1.6923,2.3281
365049,1.6931,2.3281
365050,1.6915,2.3257
365051,1.6891,2.3201
365052,1.6963,2.3265
365053,1.7165,2.3225
365054,1.6939,2.3209
365055,1.6899,2.3168
365056,1.6931,2.3185
365057,1.6971,2.3168
365058,1.6915,2.3160
365059,1.6931,2.3152
365060,1.6971,2.3168
365061,1.6963,2.3080
365062,1.6923,2.3112
365063,1.6939,2.3112
365064,1.6979,2.3096
365065,1.7036,2.3104
365066,1.7020,2.3080
365067,1.7012,2.2983
365068,1.7020,2.3104
365069,1.7012,2.3072
365070,1.7020,2.3072
365071,1.6988,2.3080
365072,1.7004,2.3080
365073,1.7020,2.3040
365074,1.7012,2.3072
365075,1.6842,2.3072
365076,1.7004,2.3040
365077,1.7100,2.3056
365078,1.7036,2.3040
365079,1.7060,2.3064
365080,1.7060,2.3064
365081,1.7068,2.3072
365082,1.7036,2.3072
365083,1.7060,2.3032
365084,1.7068,2.3056
365085,1.7100,2.3007
365086,1.7020,2.3040
365087,1.7044,2.3007
365088,1.6996,2.3040
365089,1.7060,2.3080
365090,1.7100,2.3072
365091,1.7028,2.3023
365092,1.7076,2.2999
365093,1.7076,2.2967
365094,1.7133,2.3088
365095,1.6996,2.3064
365096,1.7108,2.3080
365097,1.7125,2.2991
365098,1.7092,2.3064
365099,1.7141,2.3032
365100,1.7108,2.3072
365101,1.7133,2.3072
365102,1.7173,2.3040
365103,1.7125,2.3023
365104,1.7092,2.2548
365105,1.7133,2.3072
365106,1.7149,2.3032
365107,1.7133,2.3080
365108,1.7108,2.3072
365109,1.7366,2.3072
365110,1.7165,2.3080
365111,1.7149,2.3080
365112,1.7157,2.3088
365113,1.7149,2.3088
365114,1.7205,2.3314
365115,1.7181,2.3040
365116,1.7149,2.3080
365117,1.7189,2.3080
365118,1.7173,2.3088
365119,1.7197,2.3080
365120,1.7237,2.3112
365121,1.7189,2.3096
365122,1.7189,2.3080
365123,1.7165,2.3080
365124,1.7205,2.3128
365125,1.7149,2.3120
365126,1.7173,2.3104
365127,1.7245,2.3104
365128,1.7149,2.3104
365129,1.7205,2.3104
365130,1.7189,2.3080
365131,1.7157,2.3136
365132,1.7189,2.3104
365133,1.7229,2.3096
365134,1.7205,2.3128
365135,1.7205,2.3120
365136,1.7205,2.3128
365137,1.7229,2.3104
365138,1.7205,2.3168
365139,1.7100,2.3096
365140,1.7270,2.3104
365141,1.7189,2.3136
365142,1.7149,2.3104
365143,1.7205,2.3136
365144,1.7262,2.3112
365145,1.7237,2.3168
365146,1.7334,2.3136
365147,1.7245,2.3152
365148,1.7253,2.3120
365149,1.7197,2.3112
365150,1.7262,2.3160
365151,1.7229,2.3354
365152,1.7205,2.3112
365153,1.7245,2.3056
365154,1.7262,2.3273
365155,1.7181,2.3088
365156,1.7253,2.3128
365157,1.7270,2.3128
365158,1.7253,2.3120
365159,1.7253,2.3185
365160,1.7221,2.3088
365161,1.7326,2.3136
365162,1.7229,2.3096
365163,1.7270,2.3168
365164,1.7294,2.3128
365165,1.7229,2.3128
365166,1.7286,2.3128
365167,1.7205,2.3128
365168,1.7237,2.3104
365169,1.7189,2.3128
365170,1.7197,2.3217
365171,1.7286,2.3120
365172,1.7286,2.3128
365173,1.7278,2.3104
365174,1.7286,2.3120
365175,1.7294,2.3160
365176,1.7237,2.3128
365177,1.7237,2.3096
365178,1.7253,2.3128
365179,1.7286,2.3112
365180,1.7253,2.3120
365181,1.7286,2.3080
365182,1.7318,2.3096
365183,1.7270,2.3104
365184,1.7205,2.3160
365185,1.7245,2.3120
365186,1.7270,2.3096
365187,1.7302,2.3096
365188,1.7262,2.3088
365189,1.7270,2.3104
365190,1.7286,2.3007
365191,1.7278,2.3088
365192,1.7262,2.3056
365193,1.7262,2.3007
365194,1.7262,2.3088
365195,1.7286,2.3080
365196,1.7270,2.3096
365197,1.7205,2.3104
365198,1.7205,2.2870
365199,1.7294,2.3080
365200,1.7253,2.3080
365201,1.7205,2.3080
365202,1.7286,2.2878
365203,1.7237,2.3088
365204,1.7237,2.3064
365205,1.7221,2.3072
365206,1.7294,2.3088
365207,1.7237,2.3080
365208,1.7253,2.3056
365209,1.7205,2.3080
365210,1.7286,2.3080
365211,1.7262,2.3056
365212,1.7237,2.3080
365213,1.7253,2.3064
365214,1.7278,2.3056
365215,1.7270,2.3064
365216,1.7270,2.3064
365217,1.7237,2.3104
365218,1.7253,2.3064
365219,1.7253,2.3072
365220,1.7189,2.3072
365221,1.7229,2.3064
365222,1.7237,2.2846
365223,1.7262,2.3064
365224,1.7302,2.3104
365225,1.7262,2.3056
365226,1.7294,2.3080
365227,1.7302,2.3080
365228,1.7229,2.3040
365229,1.7173,2.3080
365230,1.7278,2.3072
365231,1.7270,2.3048
365232,1.7253,2.3072
365233,1.7237,2.3023
365234,1.7270,2.3064
365235,1.7108,2.3120
365236,1.7270,2.3056
365237,1.7270,2.3007
365238,1.7262,2.3080
365239,1.7253,2.2870
365240,1.7237,2.3080
365241,1.7270,2.3040
365242,1.7495,2.3032
365243,1.7253,2.2846
365244,1.7382,2.3064
365245,1.7229,2.3072
365246,1.7237,2.3072
365247,1.7278,2.3048
365248,1.7302,2.3056
365249,1.7181,2.3104
365250,1.7237,2.3023
365251,1.7286,2.3007
365252,1.7221,2.3056
365253,1.7205,2.3032
365254,1.7262,2.3032
365255,1.7237,2.3072
365256,1.7270,2.3007
365257,1.7229,2.3056
365258,1.7318,2.3209
365259,1.7237,2.3040
365260,1.7294,2.3056
365261,1.7286,2.3032
365262,1.7245,2.3040
365263,1.7294,2.3032
365264,1.7237,2.2983
365265,1.7245,2.3040
365266,1.7262,2.3040
365267,1.7294,2.3080
365268,1.7318,2.3080
365269,1.7278,2.3072
365270,1.7245,2.3064
365271,1.7237,2.3128
365272,1.7262,2.3048
365273,1.7245,2.3072
365274,1.7237,2.3112
365275,1.7286,2.3040
365276,1.7286,2.3064
365277,1.7157,2.3048
365278,1.7270,2.3072
365279,1.7221,2.3072
365280,1.7262,2.3056
365281,1.7302,2.3080
365282,1.7278,2.3040
365283,1.7270,2.3080
365284,1.7237,2.3072
365285,1.7221,2.3064
365286,1.7229,2.3064
365287,1.7092,2.3080
365288,1.7286,2.3104
365289,1.7205,2.3080
365290,1.7237,2.3072
365291,1.7253,2.3080
365292,1.7270,2.3080
365293,1.7253,2.3080
365294,1.7253,2.3080
365295,1.7253,2.3136
365296,1.7262,2.2895
365297,1.7294,2.3072
365298,1.7237,2.3080
365299,1.7253,2.3080
365300,1.7253,2.3088
365301,1.7302,2.3096
365302,1.7229,2.3120
365303,1.7237,2.3080
365304,1.7270,2.3080
365305,1.7278,2.3088
365306,1.7270,2.3104
365307,1.7278,2.3080
365308,1.7262,2.3168
365309,1.7286,2.3104
365310,1.7221,2.3080
365311,1.7318,2.3088
365312,1.7278,2.3128
365313,1.7253,2.3080
365314,1.7326,2.3096
365315,1.7286,2.3104
365316,1.7302,2.3096
365317,1.7221,2.3217
365318,1.7237,2.3128
365319,1.7245,2.3104
365320,1.7229,2.3088
365321,1.7310,2.3088
365322,1.7286,2.3120
365323,1.7262,2.3128
365324,1.7270,2.3096
365325,1.7253,2.3104
365326,1.7245,2.3096
365327,1.7270,2.3185
365328,1.7253,2.3442
365329,1.7205,2.3088
365330,1.7278,2.3209
365331,1.7262,2.3080
365332,1.7229,2.3088
365333,1.7286,2.3104
365334,1.7270,2.3128
365335,1.7286,2.3136
365336,1.7294,2.3120
365337,1.7245,2.3168
365338,1.7270,2.3104
365339,1.7302,2.3136
365340,1.7278,2.3096
365341,1.7262,2.3080
365342,1.7270,2.2991
365343,1.7294,2.3136
365344,1.7237,2.3168
365345,1.7237,2.3120
365346,1.7270,2.3168
365347,1.7286,2.3152
365348,1.7270,2.3136
365349,1.7237,2.3168
365350,1.7286,2.3193
365351,1.7302,2.2999
365352,1.7205,2.3177
365353,1.7278,2.3040
365354,1.7399,2.3177
365355,1.7278,2.3168
365356,1.7294,2.3160
365357,1.7286,2.3136
365358,1.7253,2.3193
365359,1.7270,2.3201
365360,1.7286,2.3096
365361,1.7294,2.3144
365362,1.7294,2.3152
365363,1.7197,2.3168
365364,1.7253,2.3177
365365,1.7310,2.3193
365366,1.7221,2.3209
365367,1.7197,2.3160
365368,1.7253,2.3160
365369,1.7310,2.3185
365370,1.7294,2.3160
365371,1.7270,2.3193
365372,1.7286,2.3193
365373,1.7286,2.3201
365374,1.7253,2.3201
365375,1.7278,2.3160
365376,1.7229,2.3217
365377,1.7253,2.3209
365378,1.7334,2.3217
365379,1.7270,2.3209
365380,1.7399,2.3185
365381,1.7310,2.3225
365382,1.7237,2.3193
365383,1.7334,2.3297
365384,1.7253,2.3330
365385,1.7253,2.3193
365386,1.7302,2.3193
365387,1.7318,2.3217
365388,1.7237,2.3193
365389,1.7326,2.3233
365390,1.7221,2.3217
365391,1.7253,2.3217
365392,1.7278,2.3201
365393,1.7237,2.3209
365394,1.7253,2.3225
365395,1.7229,2.3233
365396,1.7270,2.3330
365397,1.7253,2.3193
365398,1.7326,2.3225
365399,1.7294,2.3338
365400,1.7253,2.3241
365401,1.7358,2.3201
365402,1.7253,2.3225
365403,1.7318,2.3241
365404,1.7286,2.3233
365405,1.7253,2.3362
365406,1.7302,2.3217
365407,1.7278,2.3233
365408,1.7294,2.3225
365409,1.7286,2.3394
365410,1.7245,2.3217
365411,1.7270,2.3241
365412,1.7334,2.3233
365413,1.7229,2.3241
365414,1.7286,2.3225
365415,1.7294,2.3225
365416,1.7245,2.3233
365417,1.7310,2.3233
365418,1.7294,2.3297
365419,1.7310,2.3225
365420,1.7262,2.3209
365421,1.7278,2.3217
365422,1.7270,2.3225
365423,1.7310,2.3225
365424,1.7270,2.3249
365425,1.7286,2.3265
365426,1.7253,2.3233
365427,1.7270,2.3249
365428,1.7245,2.3217
365429,1.7294,2.3297
365430,1.7253,2.3193
365431,1.7253,2.3233
365432,1.7286,2.3249
365433,1.7262,2.3225
365434,1.7310,2.3225
365435,1.7245,2.3265
365436,1.7278,2.3249
365437,1.7270,2.3265
365438,1.7294,2.3249
365439,1.7302,2.3201
365440,1.7253,2.3257
365441,1.7253,2.3539
365442,1.7286,2.3249
365443,1.7294,2.3225
365444,1.7270,2.3225
365445,1.7286,2.3249
365446,1.7302,2.3209
365447,1.7278,2.3233
365448,1.7310,2.3257
365449,1.7278,2.3201
365450,1.7278,2.3209
365451,1.7253,2.3241
365452,1.7262,2.3233
365453,1.7270,2.3064
365454,1.7286,2.3225
365455,1.7318,2.3249
365456,1.7245,2.3209
365457,1.7237,2.3225
365458,1.7286,2.3241
365459,1.7270,2.3281
365460,1.7302,2.3297
365461,1.7302,2.3249
365462,1.7310,2.3281
365463,1.7302,2.3289
365464,1.7286,2.3281
365465,1.7197,2.3338
365466,1.7270,2.3289
365467,1.7270,2.3249
365468,1.7286,2.3209
365469,1.7270,2.3265
365470,1.7302,2.3209
365471,1.7286,2.3233
365472,1.7310,2.3233
365473,1.7197,2.3233
365474,1.7286,2.3257
365475,1.7310,2.3257
365476,1.7302,2.3273
365477,1.7294,2.3249
365478,1.7221,2.3209
365479,1.7302,2.3233
365480,1.7318,2.3257
365481,1.7286,2.3257
365482,1.7253,2.3249
365483,1.7358,2.3217
365484,1.7270,2.3217
365485,1.7278,2.3217
365486,1.7286,2.3249
365487,1.7278,2.3217
365488,1.7270,2.3201
365489,1.7253,2.3201
365490,1.7270,2.3217
365491,1.7326,2.3225
365492,1.7253,2.3233
365493,1.7262,2.3249
365494,1.7278,2.3225
365495,1.7253,2.3225
365496,1.7262,2.3217
365497,1.7253,2.3249
365498,1.7286,2.3225
365499,1.7253,2.3209
365500,1.7334,2.3209
365501,1.7270,2.3201
365502,1.7237,2.3193
365503,1.7253,2.3257
365504,1.7253,2.3233
365505,1.7302,2.3128
365506,1.7262,2.3233
365507,1.7270,2.3209
365508,1.7294,2.3209
365509,1.7262,2.3233
365510,1.7253,2.3209
365511,1.7318,2.3217
365512,1.7253,2.3193
365513,1.7149,2.3233
365514,1.7270,2.3201
365515,1.7302,2.3185
365516,1.7205,2.3265
365517,1.7253,2.3209
365518,1.7270,2.3217
365519,1.7221,2.3209
365520,1.7262,2.3201
365521,1.7237,2.3209
365522,1.7270,2.3185
365523,1.7286,2.3257
365524,1.7286,2.3217
365525,1.7270,2.3217
365526,1.7205,2.3241
365527,1.7125,2.3193
365528,1.7270,2.3241
365529,1.7229,2.3152
365530,1.7294,2.3225
365531,1.7286,2.3225
365532,1.7262,2.3233
365533,1.7262,2.3225
365534,1.7286,2.3217
365535,1.7286,2.2943
365536,1.7253,2.3225
365537,1.7302,2.3233
365538,1.7286,2.3225
365539,1.7302,2.3249
365540,1.7253,2.3225
365541,1.7270,2.3281
365542,1.7270,2.3201
365543,1.7221,2.3193
365544,1.7229,2.3201
365545,1.7286,2.3289
365546,1.7149,2.3233
365547,1.7278,2.3233
365548,1.7270,2.3249
365549,1.7463,2.3217
365550,1.7253,2.3209
365551,1.7286,2.3491
365552,1.7245,2.3233
365553,1.7253,2.3297
365554,1.7278,2.3378
365555,1.7302,2.3225
365556,1.7302,2.3257
365557,1.7302,2.3241
365558,1.7318,2.3217
365559,1.7286,2.3249
365560,1.7189,2.3346
365561,1.7270,2.3233
365562,1.7294,2.3185
365563,1.7278,2.3281
365564,1.7270,2.3249
365565,1.7270,2.3072
365566,1.7326,2.3209
365567,1.7342,2.3265
365568,1.7286,2.3233
365569,1.7302,2.3257
365570,1.7270,2.3233
365571,1.7270,2.3209
365572,1.7294,2.3265
365573,1.7237,2.3281
365574,1.7366,2.3265
365575,1.7270,2.3265
365576,1.7302,2.3225
365577,1.7286,2.3080
365578,1.7278,2.3225
365579,1.7278,2.3233
365580,1.7262,2.3233
365581,1.7262,2.3233
365582,1.7253,2.3257
365583,1.7302,2.3257
365584,1.7237,2.3225
365585,1.7326,2.3289
365586,1.7334,2.3225
365587,1.7237,2.3225
365588,1.7253,2.3249
365589,1.7278,2.3257
365590,1.7270,2.3209
365591,1.7270,2.3265
365592,1.7294,2.3241
365593,1.7294,2.3233
365594,1.7221,2.3233
365595,1.7326,2.3281
365596,1.7262,2.3265
365597,1.7302,2.3257
365598,1.7278,2.3241
365599,1.7262,2.3217
365600,1.7399,2.3249
365601,1.7133,2.3233
365602,1.7302,2.3217
365603,1.7294,2.3249
365604,1.7181,2.3249
365605,1.7278,2.3257
365606,1.7350,2.3257
365607,1.7270,2.3241
365608,1.7270,2.3217
365609,1.7286,2.3241
365610,1.7382,2.3249
365611,1.7253,2.3225
365612,1.7302,2.3225
365613,1.7286,2.3217
365614,1.7334,2.3346
365615,1.7302,2.3249
365616,1.7262,2.3217
365617,1.7278,2.3241
365618,1.7286,2.2927
365619,1.7294,2.3249
365620,1.7358,2.3265
365621,1.7302,2.3233
365622,1.7278,2.3225
365623,1.7253,2.3225
365624,1.7286,2.3249
365625,1.7294,2.3217
365626,1.7294,2.3265
365627,1.7294,2.3257
365628,1.7294,2.3209
365629,1.7294,2.3281
365630,1.7318,2.3241
365631,1.7286,2.3257
365632,1.7278,2.3265
365633,1.7286,2.3249
365634,1.7318,2.3241
365635,1.7350,2.3225
365636,1.7302,2.3233
365637,1.7262,2.3225
365638,1.7294,2.3209
365639,1.7294,2.3225
365640,1.7302,2.3249
365641,1.7318,2.3281
365642,1.7342,2.3233
365643,1.7334,2.3241
365644,1.7326,2.3257
365645,1.7350,2.3314
365646,1.7342,2.3217
365647,1.7374,2.3265
365648,1.7326,2.3257
365649,1.7350,2.3257
365650,1.7294,2.3241
365651,1.7286,2.3233
365652,1.7286,2.3281
365653,1.7278,2.3265
365654,1.7342,2.3249
365655,1.7318,2.3289
365656,1.7334,2.3249
365657,1.7286,2.3209
365658,1.7318,2.3265
365659,1.7278,2.3257
365660,1.7229,2.3225
365661,1.7366,2.3257
365662,1.7334,2.3257
365663,1.7318,2.3273
365664,1.7302,2.3225
365665,1.7334,2.3257
365666,1.7302,2.3225
365667,1.7302,2.3193
365668,1.7262,2.3297
365669,1.7302,2.3241
365670,1.7358,2.3297
365671,1.7326,2.3249
365672,1.7278,2.3265
365673,1.7318,2.3249
365674,1.7270,2.3305
365675,1.7262,2.3297
365676,1.7294,2.3289
365677,1.7358,2.3281
365678,1.7350,2.3289
365679,1.7350,2.3297
365680,1.7286,2.3241
365681,1.7302,2.3257
365682,1.7302,2.3281
365683,1.7286,2.3265
365684,1.7302,2.3297
365685,1.7278,2.3265
365686,1.7294,2.3289
365687,1.7326,2.3225
365688,1.7278,2.3257
365689,1.7318,2.3281
365690,1.7318,2.3289
365691,1.7278,2.3289
365692,1.7334,2.3314
365693,1.7286,2.3322
365694,1.7334,2.3249
365695,1.7294,2.3209
365696,1.7334,2.3257
365697,1.7318,2.3314
365698,1.7334,2.3257
365699,1.7286,2.3289
365700,1.7302,2.3249
365701,1.7407,2.3289
365702,1.7318,2.3249
365703,1.7318,2.3265
365704,1.7358,2.3281
365705,1.7253,2.3265
365706,1.7278,2.3257
365707,1.7350,2.3265
365708,1.7318,2.3297
365709,1.7326,2.3289
365710,1.7334,2.3281
365711,1.7326,2.3265
365712,1.7310,2.3265
365713,1.7326,2.3281
365714,1.7318,2.3265
365715,1.7318,2.3096
365716,1.7302,2.3273
365717,1.7310,2.3281
365718,1.7318,2.3297
365719,1.7270,2.3297
365720,1.7286,2.3273
365721,1.7294,2.3297
365722,1.7358,2.3305
365723,1.7366,2.3257
365724,1.7294,2.3289
365725,1.7302,2.3265
365726,1.7326,2.3104
365727,1.7318,2.3257
365728,1.7350,2.3289
365729,1.7278,2.3128
365730,1.7310,2.3201
365731,1.7366,2.3297
365732,1.7318,2.3281
365733,1.7294,2.3289
365734,1.7366,2.3330
365735,1.7318,2.3281
365736,1.7334,2.3297
365737,1.7350,2.3241
365738,1.7262,2.3209
365739,1.7286,2.3322
365740,1.7310,2.3233
365741,1.7318,2.3265
365742,1.7318,2.3322
365743,1.7342,2.3281
365744,1.7334,2.3265
365745,1.7302,2.3330
365746,1.7278,2.3281
365747,1.7294,2.3330
365748,1.7318,2.3305
365749,1.7326,2.3281
365750,1.7334,2.3249
365751,1.7302,2.3305
365752,1.7302,2.3257
365753,1.7366,2.3289
365754,1.7318,2.3330
365755,1.7253,2.3209
365756,1.7350,2.3297
365757,1.7350,2.3265
365758,1.7326,2.3338
365759,1.7350,2.3281
365760,1.7334,2.3330
365761,1.7318,2.3217
365762,1.7302,2.3297
365763,1.7286,2.3289
365764,1.7366,2.3257
365765,1.7334,2.3330
365766,1.7334,2.3257
365767,1.7302,2.3289
365768,1.7374,2.3338
365769,1.7302,2.3289
365770,1.7334,2.3281
365771,1.7318,2.3338
365772,1.7310,2.3297
365773,1.7302,2.3241
365774,1.7310,2.3314
365775,1.7326,2.3305
365776,1.7326,2.3265
365777,1.7358,2.3330
365778,1.7262,2.3314
365779,1.7326,2.3370
365780,1.7318,2.3314
365781,1.7358,2.3297
365782,1.7318,2.3314
365783,1.7326,2.3314
365784,1.7302,2.3289
365785,1.7318,2.3314
365786,1.7318,2.3338
365787,1.7455,2.3297
365788,1.7318,2.3314
365789,1.7286,2.3322
365790,1.7334,2.3297
365791,1.7326,2.3314
365792,1.7334,2.3257
365793,1.7302,2.3314
365794,1.7318,2.3330
365795,1.7326,2.3297
365796,1.7318,2.3322
365797,1.7334,2.3281
365798,1.7382,2.3426
365799,1.7302,2.3322
365800,1.7358,2.3257
365801,1.7302,2.3281
365802,1.7390,2.3330
365803,1.7334,2.3289
365804,1.7318,2.3281
365805,1.7270,2.3362
365806,1.7350,2.3322
365807,1.7366,2.3314
365808,1.7326,2.3297
365809,1.7350,2.3330
365810,1.7294,2.3314
365811,1.7326,2.3330
365812,1.7326,2.3297
365813,1.7366,2.3314
365814,1.7350,2.3322
365815,1.7358,2.3322
365816,1.7358,2.3297
365817,1.7358,2.3346
365818,1.7270,2.3281
365819,1.7318,2.3410
365820,1.7366,2.3314
365821,1.7302,2.3330
365822,1.7358,2.3249
365823,1.7334,2.3305
365824,1.7366,2.3338
365825,1.7334,2.3322
365826,1.7229,2.3297
365827,1.7326,2.3330
365828,1.7374,2.3305
365829,1.7374,2.3322
365830,1.7358,2.3289
365831,1.7342,2.3297
365832,1.7334,2.3136
365833,1.7366,2.3281
365834,1.7407,2.3297
365835,1.7350,2.3338
365836,1.7407,2.3249
365837,1.7334,2.3265
365838,1.7302,2.3322
365839,1.7366,2.3314
365840,1.7294,2.3217
365841,1.7294,2.3177
365842,1.7366,2.3330
365843,1.7382,2.3362
365844,1.7350,2.3322
365845,1.7374,2.3257
365846,1.7399,2.3305
365847,1.7358,2.3330
365848,1.7366,2.3265
365849,1.7358,2.3330
365850,1.7382,2.3338
365851,1.7366,2.3314
365852,1.7318,2.3249
365853,1.7334,2.3330
365854,1.7366,2.3289
365855,1.7334,2.3289
365856,1.7318,2.3322
365857,1.7382,2.3338
365858,1.7334,2.3338
365859,1.7350,2.3305
365860,1.7366,2.3330
365861,1.7358,2.3314
365862,1.7503,2.3330
365863,1.7334,2.3314
365864,1.7350,2.3330
365865,1.7334,2.3289
365866,1.7302,2.3217
365867,1.7334,2.3281
365868,1.7366,2.3305
365869,1.7366,2.3330
365870,1.7350,2.3330
365871,1.7350,2.3305
365872,1.7399,2.3297
365873,1.7326,2.3297
365874,1.7399,2.3330
365875,1.7334,2.3330
365876,1.7374,2.3136
365877,1.7318,2.3265
365878,1.7407,2.3297
365879,1.7407,2.3418
365880,1.7374,2.3330
365881,1.7399,2.3338
365882,1.7334,2.3289
365883,1.7382,2.3338
365884,1.7382,2.3314
365885,1.7165,2.3338
365886,1.7358,2.3330
365887,1.7326,2.3322
365888,1.7390,2.3314
365889,1.7407,2.3322
365890,1.7366,2.3322
365891,1.7366,2.3338
365892,1.7318,2.3314
365893,1.7334,2.3330
365894,1.7302,2.3322
365895,1.7229,2.3314
365896,1.7366,2.3330
365897,1.7374,2.3314
365898,1.7390,2.3297
365899,1.7382,2.3322
365900,1.7358,2.3305
365901,1.7350,2.3297
365902,1.7407,2.3305
365903,1.7358,2.3338
365904,1.7334,2.3346
365905,1.7366,2.3354
365906,1.7447,2.3322
365907,1.7399,2.3257
365908,1.7358,2.3241
365909,1.7399,2.3314
365910,1.7334,2.3297
365911,1.7399,2.3322
365912,1.7366,2.3362
365913,1.7366,2.3330
365914,1.7350,2.3338
365915,1.7407,2.3330
365916,1.7374,2.3281
365917,1.7390,2.3330
365918,1.7399,2.3314
365919,1.7334,2.3080
365920,1.7390,2.3338
365921,1.7286,2.3330
365922,1.7407,2.3338
365923,1.7407,2.3265
365924,1.7382,2.3338
365925,1.7358,2.3354
365926,1.7350,2.3338
365927,1.7399,2.3346
365928,1.7382,2.3314
365929,1.7382,2.3338
365930,1.7382,2.3354
365931,1.7374,2.3338
365932,1.7358,2.3338
365933,1.7374,2.3338
365934,1.7366,2.3338
365935,1.7407,2.3346
365936,1.7358,2.3354
365937,1.7382,2.3338
365938,1.7350,2.3354
365939,1.7366,2.3338
365940,1.7399,2.3338
365941,1.7358,2.3338
365942,1.7407,2.3322
365943,1.7399,2.3346
365944,1.7407,2.3346
365945,1.7399,2.3322
365946,1.7366,2.3354
365947,1.7390,2.3338
365948,1.7382,2.3330
365949,1.7407,2.3338
365950,1.7407,2.3346
365951,1.7382,2.3346
365952,1.7407,2.3322
365953,1.7407,2.3362
365954,1.7407,2.3362
365955,1.7358,2.3338
365956,1.7374,2.3330
365957,1.7399,2.3346
365958,1.7173,2.3330
365959,1.7407,2.3362
365960,1.7390,2.3330
365961,1.7399,2.3338
365962,1.7415,2.3338
365963,1.7407,2.3346
365964,1.7423,2.3338
365965,1.7382,2.3289
365966,1.7366,2.3322
365967,1.7382,2.3346
365968,1.7415,2.3338
365969,1.7407,2.3338
365970,1.7399,2.3394
365971,1.7407,2.3338
365972,1.7366,2.3725
365973,1.7407,2.3330
365974,1.7407,2.3338
365975,1.7407,2.3346
365976,1.7407,2.3265
365977,1.7431,2.3346
365978,1.7407,2.3354
365979,1.7415,2.3354
365980,1.7415,2.3338
365981,1.7447,2.3314
365982,1.7407,2.3370
365983,1.7382,2.3362
365984,1.7407,2.3386
365985,1.7407,2.3354
365986,1.7366,2.3338
365987,1.7407,2.3354
365988,1.7423,2.3346
365989,1.7407,2.3338
365990,1.7463,2.3451
365991,1.7495,2.3330
365992,1.7149,2.3338
365993,1.7447,2.3322
365994,1.7415,2.3338
365995,1.7439,2.3346
365996,1.7407,2.3378
365997,1.7415,2.3338
365998,1.7455,2.3346
365999,1.7399,2.3338
366000,1.7399,2.3338
366001,1.7415,2.3338
366002,1.7423,2.3346
366003,1.7415,2.3378
366004,1.7463,2.3354
366005,1.7423,2.3338
366006,1.7415,2.3346
366007,1.7431,2.3434
366008,1.7415,2.3314
366009,1.7431,2.3354
366010,1.7197,2.3338
366011,1.7479,2.3362
366012,1.7568,2.3354
366013,1.7455,2.3338
366014,1.7407,2.3354
366015,1.7415,2.3386
366016,1.7463,2.3338
366017,1.7487,2.3338
366018,1.7447,2.3362
366019,1.7415,2.3362
366020,1.7439,2.3314
366021,1.7536,2.3338
366022,1.7423,2.3338
366023,1.7487,2.3386
366024,1.7463,2.3338
366025,1.7503,2.3338
366026,1.7487,2.3362
366027,1.7479,2.3330
366028,1.7447,2.3354
366029,1.7503,2.3330
366030,1.7511,2.3362
366031,1.7431,2.3338
366032,1.7455,2.3330
366033,1.7463,2.3338
366034,1.7455,2.3338
366035,1.7487,2.3338
366036,1.7463,2.3410
366037,1.7511,2.3378
366038,1.7511,2.3338
366039,1.7495,2.3442
366040,1.7479,2.3523
366041,1.7455,2.3338
366042,1.7455,2.3362
366043,1.7536,2.3338
366044,1.7519,2.3338
366045,1.7463,2.3338
366046,1.7479,2.3330
366047,1.7431,2.3338
366048,1.7536,2.3338
366049,1.7479,2.3322
366050,1.7382,2.3338
366051,1.7503,2.3338
366052,1.7519,2.3330
366053,1.7487,2.3330
366054,1.7463,2.3338
366055,1.7455,2.3322
366056,1.7527,2.3346
366057,1.7487,2.3338
366058,1.7527,2.3338
366059,1.7511,2.3338
366060,1.7503,2.3338
366061,1.7527,2.3338
366062,1.7495,2.3305
366063,1.7536,2.3281
366064,1.7536,2.3314
366065,1.7511,2.3330
366066,1.7527,2.3314
366067,1.7511,2.3281
366068,1.7511,2.3297
366069,1.7536,2.3338
366070,1.7519,2.3338
366071,1.7536,2.3330
366072,1.7536,2.3338
366073,1.7374,2.3297
366074,1.7519,2.3346
366075,1.7527,2.3225
366076,1.7527,2.3338
366077,1.7511,2.3338
366078,1.7495,2.3338
366079,1.7495,2.3330
366080,1.7519,2.3314
366081,1.7536,2.3338
366082,1.7527,2.3330
366083,1.7495,2.3338
366084,1.7519,2.3354
366085,1.7503,2.3314
366086,1.7527,2.3322
366087,1.7495,2.3297
366088,1.7487,2.3330
366089,1.7487,2.3305
366090,1.7487,2.3330
366091,1.7519,2.3314
366092,1.7253,2.3297
366093,1.7527,2.3314
366094,1.7487,2.3281
366095,1.7479,2.3362
366096,1.7495,2.3297
366097,1.7463,2.3330
366098,1.7487,2.3322
366099,1.7495,2.3322
366100,1.7536,2.3265
366101,1.7471,2.3297
366102,1.7536,2.3330
366103,1.7552,2.3459
366104,1.7487,2.3330
366105,1.7536,2.3314
366106,1.7519,2.3330
366107,1.7495,2.3338
366108,1.7560,2.3330
366109,1.7576,2.3322
366110,1.7536,2.3330
366111,1.7511,2.3297
366112,1.7552,2.3249
366113,1.7519,2.3265
366114,1.7552,2.3209
366115,1.7527,2.3217
366116,1.7552,2.3225
366117,1.7479,2.3410
366118,1.7536,2.3185
366119,1.7495,2.3225
366120,1.7519,2.3209
366121,1.7479,2.3217
366122,1.7455,2.3177
366123,1.7519,2.3217
366124,1.7503,2.3225
366125,1.7536,2.3249
366126,1.7487,2.3257
366127,1.7487,2.3217
366128,1.7495,2.3185
366129,1.7511,2.3434
366130,1.7503,2.3257
366131,1.7503,2.3338
366132,1.7552,2.3249
366133,1.7455,2.3265
366134,1.7519,2.3281
366135,1.7544,2.3305
366136,1.7479,2.3297
366137,1.7536,2.3322
366138,1.7511,2.3330
366139,1.7495,2.3330
366140,1.7487,2.3314
366141,1.7511,2.3217
366142,1.7487,2.3338
366143,1.7519,2.3338
366144,1.7495,2.3346
366145,1.7495,2.3330
366146,1.7527,2.3410
366147,1.7447,2.3354
366148,1.7503,2.3322
366149,1.7495,2.3475
366150,1.7487,2.3346
366151,1.7527,2.3362
366152,1.7511,2.3354
366153,1.7511,2.3386
366154,1.7519,2.3394
366155,1.7519,2.3354
366156,1.7544,2.3080
366157,1.7536,2.3346
366158,1.7511,2.3378
366159,1.7536,2.3354
366160,1.7495,2.3426
366161,1.7536,2.3354
366162,1.7544,2.3394
366163,1.7536,2.3378
366164,1.7495,2.3386
366165,1.7519,2.3410
366166,1.7511,2.3451
366167,1.7511,2.3394
366168,1.7407,2.3418
366169,1.7536,2.3394
366170,1.7487,2.3394
366171,1.7544,2.3265
366172,1.7487,2.3451
366173,1.7544,2.3442
366174,1.7463,2.3434
366175,1.7463,2.3442
366176,1.7487,2.3418
366177,1.7527,2.3451
366178,1.7527,2.3362
366179,1.7487,2.3442
366180,1.7568,2.3418
366181,1.7479,2.3386
366182,1.7503,2.3426
366183,1.7560,2.3571
366184,1.7536,2.3346
366185,1.7511,2.3451
366186,1.7552,2.3418
366187,1.7608,2.3402
366188,1.7536,2.3426
366189,1.7527,2.3539
366190,1.7511,2.3475
366191,1.7479,2.3410
366192,1.7519,2.3426
366193,1.7527,2.3426
366194,1.7536,2.3354
366195,1.7560,2.3426
366196,1.7511,2.3442
366197,1.7511,2.3378
366198,1.7495,2.3426
366199,1.7560,2.3426
366200,1.7544,2.3249
366201,1.7495,2.3394
366202,1.7495,2.3378
366203,1.7568,2.3314
366204,1.7527,2.3386
366205,1.7576,2.3394
366206,1.7511,2.3394
366207,1.7568,2.3386
366208,1.7495,2.3394
366209,1.7519,2.3451
366210,1.7527,2.3418
366211,1.7527,2.3394
366212,1.7511,2.3402
366213,1.7495,2.3394
366214,1.7568,2.3418
366215,1.7511,2.3394
366216,1.7536,2.3386
366217,1.7519,2.3467
366218,1.7656,2.3418
366219,1.7519,2.3410
366220,1.7527,2.3475
366221,1.7544,2.3426
366222,1.7527,2.3459
366223,1.7511,2.3426
366224,1.7519,2.3451
366225,1.7527,2.3483
366226,1.7527,2.3483
366227,1.7576,2.3547
366228,1.7503,2.3467
366229,1.7560,2.3475
366230,1.7503,2.3515
366231,1.7560,2.3563
366232,1.7584,2.3483
366233,1.7536,2.3596
366234,1.7536,2.3571
366235,1.7544,2.3604
366236,1.7560,2.3571
366237,1.7527,2.3579
366238,1.7527,2.3716
366239,1.7552,2.3620
366240,1.7560,2.3700
366241,1.7584,2.3708
366242,1.7536,2.3684
366243,1.7600,2.3700
366244,1.7584,2.3700
366245,1.7576,2.3725
366246,1.7592,2.3765
366247,1.7624,2.3781
366248,1.7608,2.3781
366249,1.7624,2.3845
366250,1.7576,2.3845
366251,1.7616,2.3862
366252,1.7584,2.3878
366253,1.7624,2.3942
366254,1.7656,2.4055
366255,1.7616,2.4039
366256,1.7640,2.4071
366257,1.7415,2.4071
366258,1.7673,2.4160
366259,1.7648,2.4216
366260,1.7648,2.4289
366261,1.7640,2.4369
366262,1.7681,2.4442
366263,1.7656,2.4522
366264,1.7673,2.4627
366265,1.7697,2.4724
366266,1.7713,2.4958
366267,1.7713,2.5006
366268,1.7664,2.5127
366269,1.7689,2.5232
366270,1.7737,2.5377
366271,1.7769,2.5441
366272,1.7737,2.5554
366273,1.7801,2.5683
366274,1.7753,2.5860
366275,1.7801,2.5989
366276,1.7882,2.6126
366277,1.7866,2.6231
366278,1.7858,2.6392
366279,1.7874,2.6489
366280,1.7922,2.6585
366281,1.7971,2.6738
366282,1.7922,2.6827
366283,1.7938,2.7004
366284,1.8003,2.7182
366285,1.8027,2.7198
366286,1.8003,2.7544
366287,1.8051,2.7504
366288,1.8051,2.7722
366289,1.8043,2.7746
366290,1.8100,2.7601
366291,1.8059,2.8100
366292,1.8140,2.8149
366293,1.8148,2.8237
366294,1.8180,2.8407
366295,1.8164,2.8471
366296,1.8092,2.8600
366297,1.8180,2.8455
366298,1.8180,2.8866
366299,1.8229,2.9011
366300,1.8212,2.9043
366301,1.8164,2.9229
366302,1.8253,2.9269
366303,1.8229,2.9422
366304,1.8180,2.9511
366305,1.8204,2.9777
366306,1.8309,2.9785
366307,1.8285,2.9793
366308,1.8325,2.9946
366309,1.8221,3.0002
366310,1.8317,3.0059
366311,1.8253,3.0147
366312,1.8390,3.0212
366313,1.8309,3.0300
366314,1.8301,3.0316
366315,1.8341,3.0437
366316,1.8430,3.0486
366317,1.8293,3.0550
366318,1.8325,3.0599
366319,1.8349,3.0647
366320,1.8390,3.0792
366321,1.8462,3.0760
366322,1.8317,3.0856
366323,1.8317,3.0897
366324,1.8277,3.0816
366325,1.8164,3.0993
366326,1.8333,3.1066
366327,1.8285,3.1042
366328,1.8414,3.1114
366329,1.8358,3.1130
366330,1.8269,3.1155
366331,1.8317,3.1211
366332,1.8253,3.1259
366333,1.8317,3.1300
366334,1.8237,3.1332
366335,1.8293,3.1211
366336,1.8301,3.1332
366337,1.8301,3.1300
366338,1.8317,3.1404
366339,1.8269,3.1453
366340,1.8237,3.1404
366341,1.8140,3.1453
366342,1.8180,3.1469
366343,1.8204,3.1163
366344,1.8180,3.1509
366345,1.8196,3.1566
366346,1.8180,3.1469
366347,1.8172,3.1590
366348,1.8285,3.1517
366349,1.8180,3.1549
366350,1.8172,3.1566
366351,1.8148,3.1590
366352,1.8156,3.1517
366353,1.8156,3.1574
366354,1.8027,3.1549
366355,1.8108,3.1590
366356,1.8140,3.1574
366357,1.8132,3.1477
366358,1.8100,3.1590
366359,1.8132,3.1566
366360,1.8075,3.1549
366361,1.8051,3.1485
366362,1.8051,3.1485
366363,1.8051,3.1517
366364,1.8043,3.1517
366365,1.8116,3.1549
366366,1.8027,3.1501
366367,1.7922,3.1453
366368,1.8043,3.1469
366369,1.8051,3.1453
366370,1.8019,3.1388
366371,1.7995,3.1388
366372,1.8011,3.1421
366373,1.8035,3.1372
366374,1.8027,3.1332
366375,1.7971,3.1348
366376,1.7979,3.1324
366377,1.7938,3.1324
366378,1.7938,3.1259
366379,1.7963,3.1533
366380,1.7930,3.1275
366381,1.7922,3.1259
366382,1.7955,3.1292
366383,1.7922,3.0889
366384,1.8019,3.1203
366385,1.7922,3.1122
366386,1.7938,3.1130
366387,1.7898,3.1147
366388,1.7963,3.1106
366389,1.7898,3.1171
366390,1.7922,3.1090
366391,1.7906,3.1074
366392,1.7938,3.1163
366393,1.7890,3.1082
366394,1.7906,3.1074
366395,1.7914,3.1026
366396,1.7842,3.1042
366397,1.7922,3.0897
366398,1.7906,3.1034
366399,1.7874,3.0969
366400,1.7890,3.0969
366401,1.7858,3.1001
366402,1.7874,3.0985
366403,1.7866,3.0961
366404,1.7898,3.1018
366405,1.7842,3.1018
366406,1.7850,3.1066
366407,1.7874,3.1147
366408,1.7826,3.1050
366409,1.7834,3.1018
366410,1.7785,3.1050
366411,1.7810,3.1074
366412,1.7818,3.1042
366413,1.7866,3.1074
366414,1.7834,3.1074
366415,1.7874,3.1074
366416,1.7818,3.1074
366417,1.7801,3.1074
366418,1.7801,3.1147
366419,1.7914,3.1114
366420,1.7850,3.1074
366421,1.7898,3.1114
366422,1.7850,3.1187
366423,1.7890,3.1098
366424,1.7882,3.1074
366425,1.7874,3.1026
366426,1.7874,3.1082
366427,1.7882,3.1082
366428,1.7850,3.1074
366429,1.7850,3.0840
366430,1.7801,3.1050
366431,1.7930,3.0824
366432,1.7938,3.1001
366433,1.7906,3.1026
366434,1.7906,3.0921
366435,1.7898,3.0864
366436,1.7874,3.0832
366437,1.7898,3.0985
366438,1.7842,3.0824
366439,1.8067,3.0816
366440,1.7922,3.0695
366441,1.7914,3.0736
366442,1.7850,3.0679
366443,1.7898,3.0744
366444,1.7866,3.0679
366445,1.7850,3.0655
366446,1.7898,3.0856
366447,1.7922,3.0679
366448,1.7922,3.0558
366449,1.7858,3.0558
366450,1.7882,3.0534
366451,1.7882,3.0534
366452,1.7898,3.0502
366453,1.7866,3.0179
366454,1.7801,3.0445
366455,1.7898,3.0429
366456,1.7882,3.0389
366457,1.7850,3.0413
366458,1.7874,3.0429
366459,1.7914,3.0292
366460,1.7906,3.0284
366461,1.7882,3.0284
366462,1.7882,3.0228
366463,1.7866,3.0228
366464,1.7906,3.0163
366465,1.7850,3.0196
366466,1.7882,3.0099
366467,1.7922,3.0091
366468,1.7906,3.0067
366469,1.7890,3.0059
366470,1.7793,3.0042
366471,1.7866,3.0413
366472,1.7930,2.9889
366473,1.7826,2.9962
366474,1.7866,2.9946
366475,1.7979,2.9922
366476,1.7938,2.9930
366477,1.7914,2.9744
366478,1.7906,2.9825
366479,1.7882,2.9825
366480,1.7922,2.9744
366481,1.7922,2.9672
366482,1.7793,2.9688
366483,1.7938,2.9664
366484,1.7906,2.9632
366485,1.7850,2.9527
366486,1.7922,2.9768
366487,1.7947,2.9527
366488,1.7898,2.9446
366489,1.7850,2.9382
366490,1.7914,2.9358
366491,1.7979,2.9317
366492,1.7922,2.9237
366493,1.7874,2.9188
366494,1.7922,2.9116
366495,1.7922,2.9067
366496,1.7947,2.8995
366497,1.8051,2.8777
366498,1.7882,2.8874
366499,1.7938,2.8745
366500,1.7906,2.8713
366501,1.7947,2.8753
366502,1.7898,2.8753
366503,1.7882,2.8681
366504,1.7834,2.8632
366505,1.7898,2.8536
366506,1.7922,2.8495
366507,1.7890,2.8382
366508,1.7874,2.7947
366509,1.7947,2.8092
366510,1.7922,2.7907
366511,1.7777,2.7633
366512,1.7810,2.7286
366513,1.7818,2.6827
366514,1.7810,2.6489
366515,1.7801,2.6215
366516,1.7664,2.6166
366517,1.7785,2.6021
366518,1.7785,2.5957
366519,1.7810,2.6021
366520,1.7834,2.6029
366521,1.8035,2.6126
366522,1.7769,2.6182
366523,1.7810,2.6231
366524,1.7818,2.6392
366525,1.7850,2.6432
366526,1.7850,2.6473
366527,1.7850,2.6545
366528,1.7834,2.6634
366529,1.7898,2.6674
366530,1.7810,2.6779
366531,1.7922,2.6867
366532,1.7834,2.6948
366533,1.7882,2.7029
366534,1.7914,2.7085
366535,1.7818,2.7182
366536,1.7906,2.7238
366537,1.7922,2.7295
366538,1.7842,2.7391
366539,1.7938,2.7440
366540,1.7938,2.7480
366541,1.7922,2.7512
366542,1.7898,2.7625
366543,1.7922,2.7641
366544,1.7898,2.7714
366545,1.8180,2.7722
366546,1.7922,2.7730
366547,1.7914,2.7875
366548,1.7922,2.7754
366549,1.7922,2.7762
366550,1.7898,2.7649
366551,1.7979,2.7762
366552,1.7979,2.7722
366553,1.7995,2.7722
366554,1.7938,2.7681
366555,1.7979,2.7544
366556,1.7922,2.7520
366557,1.8019,2.7472
366558,1.8003,2.7335
366559,1.7930,2.7407
366560,1.7947,2.7246
366561,1.7818,2.7190
366562,1.7922,2.6996
366563,1.7922,2.7061
366564,1.7922,2.6972
366565,1.7979,2.6875
366566,1.7955,2.6803
366567,1.7979,2.6755
366568,1.7922,2.6714
366569,1.7963,2.6690
366570,1.7922,2.6521
366571,1.7922,2.6440
366572,1.7882,2.6440
366573,1.7947,2.6360
366574,1.7930,2.6303
366575,1.7930,2.6207
366576,1.7930,2.6174
366577,1.7922,2.6102
366578,1.7930,2.6045
366579,1.8011,2.5973
366580,1.7906,2.5916
366581,1.7898,2.5892
366582,1.7922,2.5820
366583,1.7874,2.5425
366584,1.7842,2.5763
366585,1.7922,2.5441
366586,1.7745,2.5554
366587,1.7914,2.5610
366588,1.7850,2.5570
366589,1.7898,2.5497
366590,1.7850,2.5441
366591,1.7834,2.5425
366592,1.7826,2.5489
366593,1.7818,2.5385
366594,1.7850,2.5393
366595,1.7850,2.5296
366596,1.7818,2.5264
366597,1.7785,2.5288
366598,1.7850,2.5248
366599,1.7834,2.5272
366600,1.7834,2.5199
366601,1.7769,2.5167
366602,1.7801,2.5143
366603,1.7906,2.5119
366604,1.7874,2.5135
366605,1.7810,2.5119
366606,1.7850,2.5054
366607,1.7842,2.5062
366608,1.7922,2.5038
366609,1.7850,2.5441
366610,1.7834,2.5038
366611,1.7874,2.5014
366612,1.7882,2.4877
366613,1.7713,2.4990
366614,1.7793,2.4990
366615,1.7834,2.4958
366616,1.7874,2.4990
366617,1.7826,2.4974
366618,1.7818,2.4958
366619,1.7826,2.4966
366620,1.7810,2.4925
366621,1.7850,2.4966
366622,1.7866,2.4974
366623,1.7834,2.4941
366624,1.7842,2.4990
366625,1.7882,2.5143
366626,1.7785,2.5022
366627,1.7850,2.5006
366628,1.7664,2.5030
366629,1.7850,2.5223
366630,1.7866,2.5127
366631,1.7850,2.5135
366632,1.7898,2.5103
366633,1.7882,2.5143
366634,1.7874,2.5151
366635,1.7906,2.5199
366636,1.7801,2.5393
366637,1.7898,2.5272
366638,1.7834,2.5344
366639,1.7898,2.5368
366640,1.7842,2.5401
366641,1.7834,2.5441
366642,1.7898,2.5514
366643,1.7874,2.5530
366644,1.7922,2.5618
366645,1.7850,2.5651
366646,1.7898,2.5659
366647,1.7922,2.5739
366648,1.7866,2.5828
366649,1.7914,2.5916
366650,1.7922,2.6045
366651,1.7922,2.6174
366652,1.7914,2.6231
366653,1.7963,2.6376
366654,1.7898,2.6456
366655,1.7898,2.6569
366656,1.7922,2.6690
366657,1.7979,2.6779
366658,1.7947,2.6940
366659,1.8051,2.7037
366660,1.8075,2.7206
366661,1.8092,2.7149
366662,1.7979,2.7512
366663,1.8108,2.7641
366664,1.8019,2.7794
366665,1.8075,2.7963
366666,1.8043,2.8165
366667,1.8043,2.8245
366668,1.8035,2.8455
366669,1.8140,2.8487
366670,1.8188,2.8729
366671,1.8092,2.8995
366672,1.8140,2.9067
366673,1.8108,2.9221
366674,1.8108,2.9374
366675,1.8221,2.9454
366676,1.8229,2.9486
366677,1.8253,2.9632
366678,1.8253,2.9785
366679,1.8261,2.9809
366680,1.8390,2.9768
366681,1.8317,2.9970
366682,1.8358,3.0083
366683,1.8269,3.0163
366684,1.8317,3.0276
366685,1.8358,3.0325
366686,1.8358,3.0462
366687,1.8438,3.0558
366688,1.8422,3.0711
366689,1.8414,3.0816
366690,1.8422,3.0937
366691,1.8333,3.1050
366692,1.8349,3.1147
366693,1.8438,3.1332
366694,1.8438,3.1461
366695,1.8414,3.1590
366696,1.8438,3.1735
366697,1.8446,3.1896
366698,1.8462,3.2025
366699,1.8446,3.2170
366700,1.8454,3.2339
366701,1.8454,3.2371
366702,1.8454,3.2581
366703,1.8438,3.2621
366704,1.8414,3.2774
366705,1.8446,3.2895
366706,1.8543,3.2968
366707,1.8462,3.3000
366708,1.8462,3.3000
366709,1.8543,3.3000
366710,1.8495,3.3000
366711,1.8495,3.3000
366712,1.8519,3.3000
366713,1.8438,3.3000
366714,1.8486,3.3000
366715,1.8527,3.3000
366716,1.8430,3.3000
366717,1.8438,3.3000
366718,1.8438,3.3000
366719,1.8446,3.3000
366720,1.8454,3.3000
366721,1.8478,3.3000
366722,1.8462,3.3000
366723,1.8446,3.3000
366724,1.8478,3.3000
366725,1.8454,3.3000
366726,1.8430,3.3000
366727,1.8446,3.3000
366728,1.8406,3.3000
366729,1.8374,3.3000
366730,1.8486,3.3000
366731,1.8438,3.3000
366732,1.8438,3.3000
366733,1.8438,3.3000
366734,1.8430,3.3000
366735,1.8406,3.3000
366736,1.8438,3.3000
366737,1.8422,3.3000
366738,1.8333,3.3000
366739,1.8430,3.3000
366740,1.8309,3.3000
366741,1.8349,3.3000
366742,1.8430,3.3000
366743,1.8398,3.3000
366744,1.8333,3.3000
366745,1.8317,3.3000
366746,1.8309,3.3000
366747,1.8317,3.3000
366748,1.8221,3.3000
366749,1.8325,3.3000
366750,1.8293,3.3000
366751,1.8285,3.3000
366752,1.8317,3.3000
366753,1.8237,3.3000
366754,1.8285,3.3000
366755,1.8237,3.3000
366756,1.8204,3.3000
366757,1.8180,3.3000
366758,1.8196,3.3000
366759,1.8172,3.3000
366760,1.8124,3.3000
366761,1.8180,3.3000
366762,1.8180,3.3000
366763,1.8172,3.3000
366764,1.8180,3.3000
366765,1.8132,3.3000
366766,1.8100,3.3000
366767,1.8132,3.3000
366768,1.8084,3.3000
366769,1.8027,3.3000
366770,1.8084,3.3000
366771,1.8132,3.3000
366772,1.8100,3.3000
366773,1.8067,3.3000
366774,1.8011,3.3000
366775,1.8027,3.3000
366776,1.8051,3.3000
366777,1.8011,3.3000
366778,1.7995,3.3000
366779,1.7947,3.3000
366780,1.8003,3.3000
366781,1.7866,3.3000
366782,1.8043,3.3000
366783,1.7995,3.3000
366784,1.7906,3.3000
366785,1.8003,3.3000
366786,1.7938,3.3000
366787,1.7922,3.3000
366788,1.7971,3.3000
366789,1.7995,3.3000
366790,1.7938,3.2911
366791,1.7922,3.2879
366792,1.7922,3.2702
366793,1.7963,3.2613
366794,1.7850,3.2613
366795,1.7922,3.2516
366796,1.7922,3.2363
366797,1.8084,3.2412
366798,1.7834,3.2363
366799,1.7850,3.2226
366800,1.7898,3.2162
366801,1.7842,3.1735
366802,1.7753,3.2009
366803,1.7874,3.1904
366804,1.7810,3.1864
366805,1.7834,3.1807
366806,1.7793,3.1751
366807,1.7753,3.1703
366808,1.7834,3.1614
366809,1.7777,3.1590
366810,1.7737,3.1614
366811,1.7745,3.1566
366812,1.7810,3.1485
366813,1.7777,3.1477
366814,1.7681,3.1421
366815,1.7713,3.1380
366816,1.7721,3.1364
366817,1.7689,3.1372
366818,1.7721,3.1187
366819,1.7761,3.1332
366820,1.7785,3.1372
366821,1.7713,3.1348
366822,1.7689,3.1332
366823,1.7664,3.1348
366824,1.7761,3.1461
366825,1.7664,3.1590
366826,1.7689,3.1388
366827,1.7721,3.1477
366828,1.7673,3.1404
366829,1.7664,3.1735
366830,1.7648,3.1453
366831,1.7664,3.1493
366832,1.7673,3.1477
366833,1.7681,3.1549
366834,1.7689,3.1501
366835,1.7648,3.1533
366836,1.7648,3.1574
366837,1.7648,3.1348
366838,1.7640,3.1574
366839,1.7656,3.1574
366840,1.7664,3.1566
366841,1.7656,3.1541
366842,1.7584,3.1509
366843,1.7793,3.1533
366844,1.7648,3.1590
366845,1.7608,3.1477
366846,1.7624,3.1517
366847,1.7640,3.1453
366848,1.7560,3.1469
366849,1.7576,3.1485
366850,1.7648,3.1469
366851,1.7576,3.1485
366852,1.7664,3.1477
366853,1.7624,3.1469
366854,1.7560,3.1485
366855,1.7527,3.1469
366856,1.7576,3.1493
366857,1.7592,3.1509
366858,1.7568,3.1485
366859,1.7560,3.1517
366860,1.7616,3.1566
366861,1.7536,3.1533
366862,1.7536,3.1501
366863,1.7527,3.2130
366864,1.7560,3.1501
366865,1.7519,3.1590
366866,1.7536,3.1437
366867,1.7527,3.1485
366868,1.7536,3.1485
366869,1.7536,3.1469
366870,1.7511,3.1517
366871,1.7495,3.1493
366872,1.7487,3.1469
366873,1.7536,3.1509
366874,1.7536,3.1541
366875,1.7527,3.1525
366876,1.7479,3.1485
366877,1.7536,3.1549
366878,1.7536,3.1509
366879,1.7527,3.1501
366880,1.7479,3.1541
366881,1.7495,3.1549
366882,1.7439,3.1549
366883,1.7431,3.1517
366884,1.7519,3.1445
366885,1.7455,3.1549
366886,1.7511,3.1574
366887,1.7511,3.1541
366888,1.7495,3.1590
366889,1.7519,3.1549
366890,1.7447,3.1582
366891,1.7527,3.1525
366892,1.7463,3.1598
366893,1.7431,3.1566
366894,1.7487,3.1590
366895,1.7407,3.1541
366896,1.7463,3.1509
366897,1.7463,3.1549
366898,1.7463,3.1566
366899,1.7463,3.1509
366900,1.7463,3.1590
366901,1.7511,3.1533
366902,1.7463,3.1549
366903,1.7415,3.1517
366904,1.7463,3.1549
366905,1.7423,3.1549
366906,1.7455,3.1574
366907,1.7455,3.1517
366908,1.7286,3.1558
366909,1.7423,3.1517
366910,1.7431,3.1606
366911,1.7407,3.1501
366912,1.7463,3.1477
366913,1.7382,3.1533
366914,1.7407,3.1501
366915,1.7431,3.1461
366916,1.7423,3.1445
366917,1.7407,3.1429
366918,1.7399,3.1412
366919,1.7423,3.1461
366920,1.7407,3.1243
366921,1.7479,3.1404
366922,1.7431,3.1421
366923,1.7415,3.1026
366924,1.7374,3.1332
366925,1.7390,3.1348
366926,1.7310,3.1332
366927,1.7390,3.1348
366928,1.7407,3.1332
366929,1.7399,3.1308
366930,1.7423,3.1292
366931,1.7399,3.1259
366932,1.7447,3.1251
366933,1.7366,3.1219
366934,1.7390,3.1179
366935,1.7390,3.1163
366936,1.7407,3.1163
366937,1.7334,3.1171
366938,1.7390,3.1171
366939,1.7350,3.1074
366940,1.7399,3.1066
366941,1.7358,3.1074
366942,1.7382,3.0945
366943,1.7407,3.1058
366944,1.7390,3.1026
366945,1.7399,3.0985
366946,1.7358,3.1122
366947,1.7334,3.0929
366948,1.7245,3.0897
366949,1.7326,3.0840
366950,1.7399,3.0824
366951,1.7350,3.0897
366952,1.7431,3.0800
366953,1.7278,3.0719
366954,1.7334,3.0582
366955,1.7318,3.0687
366956,1.7374,3.0744
366957,1.7350,3.0615
366958,1.7358,3.0558
366959,1.7278,3.0445
366960,1.7262,3.0542
366961,1.7278,3.0099
366962,1.7278,2.9889
366963,1.7294,2.9551
366964,1.7181,2.9221
366965,1.7237,2.9003
366966,1.7197,2.8648
366967,1.7197,2.8358
366968,1.7213,2.8100
366969,1.7181,2.7826
366970,1.7165,2.7689
366971,1.7141,2.7448
366972,1.7157,2.7577
366973,1.7149,2.7004
366974,1.7108,2.6859
366975,1.7076,2.6803
366976,1.7108,2.6473
366977,1.7020,2.6432
366978,1.7060,2.6207
366979,1.7004,2.6062
366980,1.7068,2.5884
366981,1.7020,2.5771
366982,1.6996,2.5659
366983,1.7004,2.5530
366984,1.7012,2.5433
366985,1.6979,2.5320
366986,1.7004,2.5199
366987,1.7068,2.5127
366988,1.6907,2.5022
366989,1.6971,2.4941
366990,1.6899,2.4877
366991,1.6955,2.4829
366992,1.6947,2.4675
366993,1.6979,2.4627
366994,1.6947,2.4555
366995,1.6915,2.4410
366996,1.6899,2.4418
366997,1.6907,2.4297
366998,1.6939,2.4345
366999,1.6915,2.4256
367000,1.6883,2.4200
367001,1.6915,2.4192
367002,1.6907,2.4111
367003,1.6931,2.4039
367004,1.6899,2.3596
367005,1.6907,2.4007
367006,1.6899,2.3942
367007,1.6996,2.3910
367008,1.6867,2.3853
367009,1.6883,2.3845
367010,1.6891,2.3765
367011,1.6907,2.3765
367012,1.6891,2.3733
367013,1.6891,2.3692
367014,1.6883,2.3676
367015,1.6891,2.3684
367016,1.6907,2.3620
367017,1.6988,2.3612
367018,1.6923,2.3579
367019,1.6931,2.3547
367020,1.6899,2.3563
367021,1.6891,2.3523
367022,1.6899,2.3467
367023,1.6891,2.3386
367024,1.6883,2.3491
367025,1.6939,2.3434
367026,1.6891,2.3386
367027,1.6891,2.3386
367028,1.6867,2.3362
367029,1.6657,2.3314
367030,1.6907,2.3338
367031,1.6891,2.3305
367032,1.7012,2.3314
367033,1.6899,2.3330
367034,1.6915,2.3330
367035,1.6931,2.3281
367036,1.6899,2.3249
367037,1.6971,2.3281
367038,1.6915,2.3217
367039,1.6963,2.3217
367040,1.6947,2.3217
367041,1.6947,2.3209
367042,1.6947,2.3217
367043,1.7004,2.3193
367044,1.6931,2.3217
367045,1.7004,2.3289
367046,1.6988,2.3185
367047,1.6971,2.3185
367048,1.7004,2.3168
367049,1.6996,2.3217
367050,1.6947,2.3152
367051,1.6963,2.2975
367052,1.7028,2.3168
367053,1.7020,2.3177
367054,1.7100,2.3160
367055,1.7028,2.3201
367056,1.7028,2.3168
367057,1.7012,2.3152
367058,1.7020,2.3217
367059,1.7020,2.3193
367060,1.7060,2.3007
367061,1.7020,2.3136
367062,1.7108,2.3168
367063,1.7068,2.3177
367064,1.7052,2.3177
367065,1.7028,2.3152
367066,1.7068,2.3193
367067,1.7020,2.3185
367068,1.7084,2.3201
367069,1.7068,2.3209
367070,1.7052,2.3152
367071,1.7068,2.3112
367072,1.7133,2.3177
367073,1.7100,2.3185
367074,1.7108,2.3193
367075,1.7141,2.3136
367076,1.7092,2.3225
367077,1.7133,2.3209
367078,1.7108,2.3193
367079,1.7068,2.3160
367080,1.7125,2.3209
367081,1.7092,2.3217
367082,1.7108,2.3225
367083,1.7173,2.3249
367084,1.7141,2.3193
367085,1.7125,2.3201
367086,1.7149,2.3217
367087,1.7149,2.3233
367088,1.7165,2.3265
367089,1.7221,2.3233
367090,1.7181,2.3233
367091,1.7149,2.3281
367092,1.7165,2.3265
367093,1.7189,2.3257
367094,1.7149,2.3064
367095,1.7149,2.3257
367096,1.7221,2.3289
367097,1.7149,2.3225
367098,1.7165,2.3281
367099,1.7189,2.3257
367100,1.7165,2.3265
367101,1.7149,2.3265
367102,1.7189,2.3281
367103,1.7157,2.3297
367104,1.7189,2.3265
367105,1.7229,2.3257
367106,1.7060,2.3257
367107,1.7165,2.3378
367108,1.7173,2.3297
367109,1.7205,2.3281
367110,1.7197,2.3289
367111,1.7189,2.3297
367112,1.7157,2.3297
367113,1.7229,2.3305
367114,1.7278,2.3330
367115,1.7245,2.3297
367116,1.7189,2.3314
367117,1.7221,2.3346
367118,1.7173,2.3297
367119,1.7181,2.3314
367120,1.7302,2.3265
367121,1.7229,2.3322
367122,1.7253,2.3305
367123,1.7253,2.3265
367124,1.7237,2.3297
367125,1.7270,2.3322
367126,1.7253,2.3322
367127,1.7229,2.3297
367128,1.7205,2.3297
367129,1.7229,2.3297
367130,1.7197,2.3322
367131,1.7229,2.3289
367132,1.7229,2.3330
367133,1.7213,2.3225
367134,1.7318,2.3314
367135,1.7262,2.3322
367136,1.7149,2.3330
367137,1.7205,2.3314
367138,1.7197,2.3338
367139,1.7253,2.3338
367140,1.7229,2.3314
367141,1.7237,2.3330
367142,1.7286,2.3338
367143,1.7286,2.3338
367144,1.7262,2.3257
367145,1.7262,2.3314
367146,1.7205,2.3338
367147,1.7221,2.3338
367148,1.7302,2.3475
367149,1.7262,2.3314
367150,1.7149,2.3322
367151,1.7245,2.3338
367152,1.7278,2.3338
367153,1.7237,2.3289
367154,1.7229,2.3386
367155,1.7237,2.3330
367156,1.7245,2.3322
367157,1.7157,2.3330
367158,1.7197,2.3338
367159,1.7253,2.3305
367160,1.7197,2.3314
367161,1.7221,2.3338
367162,1.7189,2.3338
367163,1.7318,2.3314
367164,1.7237,2.3297
367165,1.7229,2.3297
367166,1.7197,2.3289
367167,1.7237,2.3330
367168,1.7318,2.3338
367169,1.7253,2.3281
367170,1.7221,2.3338
367171,1.7270,2.3314
367172,1.7253,2.3370
367173,1.7318,2.3314
367174,1.7270,2.3233
367175,1.7262,2.3330
367176,1.7253,2.3297
367177,1.7237,2.3289
367178,1.7278,2.3209
367179,1.7205,2.3322
367180,1.7197,2.3305
367181,1.7253,2.3330
367182,1.7197,2.3289
367183,1.7270,2.3257
367184,1.7237,2.3322
367185,1.7205,2.3265
367186,1.7205,2.3394
367187,1.7253,2.3297
367188,1.7262,2.3322
367189,1.7262,2.3281
367190,1.7205,2.3305
367191,1.7205,2.3297
367192,1.7189,2.3265
367193,1.7245,2.3273
367194,1.7221,2.3225
367195,1.7205,2.3314
367196,1.7237,2.3281
367197,1.7237,2.3289
367198,1.7245,2.3305
367199,1.7253,2.3265
367200,1.7173,2.3289
367201,1.7205,2.3177
367202,1.7262,2.3289
367203,1.7197,2.3314
367204,1.7229,2.3314
367205,1.7181,2.3314
367206,1.7165,2.3297
367207,1.7189,2.3289
367208,1.7189,2.3201
367209,1.7165,2.3281
367210,1.7270,2.3314
367211,1.7125,2.3289
367212,1.7253,2.3281
367213,1.7197,2.3297
367214,1.7197,2.3305
367215,1.7253,2.3305
367216,1.7165,2.3338
367217,1.7173,2.3289
367218,1.7205,2.3265
367219,1.7270,2.3265
367220,1.7189,2.3257
367221,1.7253,2.3305
367222,1.7229,2.3338
367223,1.7237,2.2870
367224,1.7270,2.3257
367225,1.7237,2.3322
367226,1.7237,2.3297
367227,1.7149,2.3088
367228,1.7205,2.3249
367229,1.7189,2.3289
367230,1.7157,2.3330
367231,1.7253,2.3297
367232,1.7173,2.3257
367233,1.7181,2.3201
367234,1.7229,2.3330
367235,1.7173,2.3265
367236,1.7181,2.3305
367237,1.7189,2.3249
367238,1.7237,2.3330
367239,1.7157,2.3265
367240,1.7189,2.3289
367241,1.7173,2.3297
367242,1.7205,2.3233
367243,1.7149,2.3209
367244,1.7205,2.3249
367245,1.7278,2.3305
367246,1.7205,2.3281
367247,1.7165,2.3136
367248,1.7205,2.3265
367249,1.7181,2.3338
367250,1.7229,2.3201
367251,1.7245,2.3289
367252,1.7237,2.3281
367253,1.7229,2.3241
367254,1.7253,2.3322
367255,1.7149,2.3209
367256,1.7189,2.3297
367257,1.7141,2.3273
367258,1.7189,2.3338
367259,1.7205,2.3297
367260,1.7116,2.3281
367261,1.7181,2.3289
367262,1.7229,2.3451
367263,1.7253,2.3241
367264,1.7189,2.3233
367265,1.7237,2.3297
367266,1.7221,2.3257
367267,1.7149,2.3257
367268,1.7181,2.3257
367269,1.7149,2.3281
367270,1.7229,2.3442
367271,1.7165,2.3370
367272,1.7197,2.3281
367273,1.7407,2.3297
367274,1.7262,2.3281
367275,1.7189,2.3281
367276,1.7173,2.3265
367277,1.7286,2.3289
367278,1.7157,2.3289
367279,1.7165,2.3257
367280,1.7262,2.3265
367281,1.7189,2.3257
367282,1.7173,2.3289
367283,1.7221,2.3217
367284,1.7205,2.3249
367285,1.7165,2.3281
367286,1.7173,2.3201
367287,1.7165,2.3265
367288,1.7237,2.3225
367289,1.7189,2.3265
367290,1.7205,2.3289
367291,1.7197,2.3249
367292,1.7197,2.3297
367293,1.7181,2.3265
367294,1.7149,2.3217
367295,1.7205,2.3249
367296,1.7205,2.3273
367297,1.7229,2.3217
367298,1.7253,2.3257
367299,1.7173,2.3257
367300,1.7149,2.3249
367301,1.7165,2.3225
367302,1.7149,2.3265
367303,1.7197,2.3088
367304,1.7173,2.3128
367305,1.7149,2.3225
367306,1.7181,2.3225
367307,1.7189,2.3233
367308,1.7173,2.3225
367309,1.7165,2.3249
367310,1.7221,2.3193
367311,1.7189,2.3241
367312,1.7197,2.3217
367313,1.7157,2.3217
367314,1.7149,2.3233
367315,1.7157,2.3233
367316,1.7149,2.3209
367317,1.7181,2.3249
367318,1.7165,2.3233
367319,1.7149,2.3225
367320,1.7157,2.3168
367321,1.7157,2.3241
367322,1.7165,2.3330
367323,1.7173,2.3249
367324,1.7149,2.3201
367325,1.7149,2.3088
367326,1.7149,2.3249
367327,1.7133,2.3265
367328,1.7149,2.3217
367329,1.7173,2.3233
367330,1.7157,2.3217
367331,1.7141,2.3249
367332,1.7149,2.3249
367333,1.7165,2.3225
367334,1.7157,2.3257
367335,1.7157,2.3217
367336,1.7141,2.3241
367337,1.7149,2.3442
367338,1.7141,2.3257
367339,1.7141,2.3281
367340,1.7149,2.3080
367341,1.7197,2.3346
367342,1.7141,2.3209
367343,1.7149,2.3120
367344,1.7149,2.3233
367345,1.7149,2.3273
367346,1.7157,2.3233
367347,1.7173,2.3249
367348,1.7157,2.3257
367349,1.7149,2.3080
367350,1.7149,2.3225
367351,1.7060,2.3209
367352,1.7149,2.3322
367353,1.7149,2.3225
367354,1.7157,2.3265
367355,1.7149,2.3241
367356,1.7100,2.3217
367357,1.7173,2.3257
367358,1.7149,2.3233
367359,1.7173,2.3241
367360,1.7149,2.3241
367361,1.7149,2.3209
367362,1.7149,2.3209
367363,1.7133,2.3257
367364,1.7141,2.3241
367365,1.7157,2.3233
367366,1.7157,2.3217
367367,1.7149,2.3225
367368,1.7149,2.3249
367369,1.7125,2.3257
367370,1.7149,2.3297
367371,1.7229,2.3249
367372,1.7157,2.3209
367373,1.7141,2.3265
367374,1.7149,2.3209
367375,1.7205,2.3257
367376,1.7157,2.3330
367377,1.7092,2.3217
367378,1.7149,2.3233
367379,1.7133,2.3249
367380,1.7108,2.3249
367381,1.7133,2.3201
367382,1.7149,2.3225
367383,1.7149,2.3249
367384,1.7141,2.3265
367385,1.7149,2.3289
367386,1.7157,2.3233
367387,1.7149,2.3265
367388,1.7149,2.3273
367389,1.7149,2.3201
367390,1.7149,2.3217
367391,1.6923,2.3225
367392,1.7149,2.3233
367393,1.7149,2.3281
367394,1.7149,2.3217
367395,1.7149,2.3281
367396,1.7149,2.3209
367397,1.7173,2.3201
367398,1.7125,2.3249
367399,1.7149,2.3201
367400,1.7149,2.3386
367401,1.7149,2.3225
367402,1.7141,2.3233
367403,1.7116,2.3257
367404,1.7149,2.3265
367405,1.7173,2.3201
367406,1.7157,2.3249
367407,1.7157,2.3233
367408,1.7133,2.3241
367409,1.7149,2.3217
367410,1.7149,2.3249
367411,1.7116,2.3225
367412,1.7149,2.3217
367413,1.7157,2.3241
367414,1.7157,2.3249
367415,1.7028,2.3241
367416,1.7133,2.3233
367417,1.7157,2.3257
367418,1.7133,2.3386
367419,1.7165,2.3217
367420,1.7149,2.3233
367421,1.7149,2.3249
367422,1.7181,2.3233
367423,1.7141,2.3201
367424,1.7173,2.3281
367425,1.7149,2.3233
367426,1.7149,2.3209
367427,1.7125,2.3233
367428,1.7141,2.3249
367429,1.7149,2.3265
367430,1.7173,2.3289
367431,1.7189,2.3217
367432,1.7141,2.3080
367433,1.7133,2.3289
367434,1.7108,2.3289
367435,1.7149,2.3233
367436,1.7149,2.3265
367437,1.7149,2.3265
367438,1.7149,2.3289
367439,1.7149,2.3297
367440,1.7149,2.3281
367441,1.7149,2.3233
367442,1.7141,2.3281
367443,1.7149,2.3297
367444,1.7149,2.3346
367445,1.7149,2.3265
367446,1.7149,2.3249
367447,1.7149,2.3305
367448,1.7149,2.3314
367449,1.7165,2.3257
367450,1.7149,2.3249
367451,1.7149,2.3265
367452,1.7157,2.3241
367453,1.7149,2.3314
367454,1.7149,2.3257
367455,1.7157,2.3281
367456,1.7149,2.3281
367457,1.7165,2.3297
367458,1.7197,2.3297
367459,1.7157,2.3338
367460,1.7141,2.3330
367461,1.7149,2.3314
367462,1.7116,2.3289
367463,1.7173,2.3273
367464,1.7189,2.3322
367465,1.7149,2.3289
367466,1.7149,2.3297
367467,1.7181,2.3297
367468,1.7221,2.3322
367469,1.7189,2.3241
367470,1.7149,2.3305
367471,1.7165,2.3314
367472,1.7165,2.3281
367473,1.7149,2.3330
367474,1.7149,2.3330
367475,1.7076,2.3297
367476,1.7157,2.3338
367477,1.7125,2.3330
367478,1.7173,2.3330
367479,1.7173,2.3322
367480,1.7149,2.3322
367481,1.7149,2.3314
367482,1.7149,2.3289
367483,1.7189,2.3346
367484,1.7165,2.3330
367485,1.7149,2.3322
367486,1.7536,2.3297
367487,1.7157,2.3338
367488,1.7157,2.3338
367489,1.7076,2.3338
367490,1.7149,2.3322
367491,1.7189,2.3338
367492,1.7302,2.3354
367493,1.7205,2.3289
367494,1.7189,2.3305
367495,1.7165,2.3338
367496,1.7197,2.3346
367497,1.7173,2.3338
367498,1.7173,2.3322
367499,1.7149,2.3338
367500,1.7141,2.3338
367501,1.7189,2.3265
367502,1.7189,2.3338
367503,1.7197,2.3330
367504,1.7189,2.3338
367505,1.7205,2.3136
367506,1.7205,2.3338
367507,1.7245,2.3475
367508,1.7157,2.3330
367509,1.7253,2.3354
367510,1.7221,2.3338
367511,1.7157,2.3338
367512,1.7157,2.3338
367513,1.7149,2.3330
367514,1.7237,2.3330
367515,1.7278,2.3338
367516,1.7229,2.3338
367517,1.7237,2.3362
367518,1.7173,2.3314
367519,1.7165,2.3338
367520,1.7157,2.3354
367521,1.7197,2.3289
367522,1.7197,2.3330
367523,1.7189,2.3338
367524,1.7173,2.3322
367525,1.7173,2.3338
367526,1.7326,2.3338
367527,1.7189,2.3346
367528,1.7213,2.3346
367529,1.7157,2.3338
367530,1.7189,2.3346
367531,1.7189,2.3338
367532,1.7173,2.3314
367533,1.7205,2.3338
367534,1.7229,2.3338
367535,1.7165,2.3338
367536,1.7189,2.3330
367537,1.7125,2.3314
367538,1.7165,2.3322
367539,1.7205,2.3338
367540,1.7189,2.3346
367541,1.7189,2.3346
367542,1.7205,2.3338
367543,1.7157,2.3322
367544,1.7165,2.3297
367545,1.7157,2.3338
367546,1.7189,2.3338
367547,1.7173,2.3338
367548,1.7149,2.3346
367549,1.7165,2.3338
367550,1.7149,2.3346
367551,1.7189,2.3346
367552,1.7157,2.3338
367553,1.7157,2.3265
367554,1.7189,2.3322
367555,1.7149,2.3185
367556,1.7173,2.3338
367557,1.7165,2.3338
367558,1.7237,2.3338
367559,1.7221,2.3338
367560,1.7157,2.3330
367561,1.7149,2.3338
367562,1.7237,2.3322
367563,1.7197,2.3338
367564,1.7173,2.3322
367565,1.7149,2.3338
367566,1.7189,2.3338
367567,1.7189,2.3314
367568,1.7245,2.3338
367569,1.7157,2.3507
367570,1.7149,2.3322
367571,1.7173,2.3330
367572,1.7149,2.3346
367573,1.7149,2.3330
367574,1.7149,2.3491
367575,1.7157,2.3338
367576,1.7149,2.3322
367577,1.7221,2.3297
367578,1.7173,2.3346
367579,1.7149,2.3265
367580,1.7221,2.3330
367581,1.7149,2.3338
367582,1.7157,2.3338
367583,1.7173,2.3338
367584,1.7149,2.3338
367585,1.7173,2.3338
367586,1.7157,2.3314
367587,1.7173,2.3314
367588,1.7205,2.3338
367589,1.7149,2.3330
367590,1.7173,2.3338
367591,1.7173,2.3330
367592,1.7149,2.3330
367593,1.7125,2.3314
367594,1.7173,2.3330
367595,1.7181,2.3217
367596,1.7173,2.3281
367597,1.7149,2.3322
367598,1.7149,2.3338
367599,1.7173,2.3314
367600,1.7157,2.3330
367601,1.7149,2.3322
367602,1.7157,2.3281
367603,1.7149,2.3330
367604,1.7173,2.3281
367605,1.7149,2.3378
367606,1.7149,2.3330
367607,1.7133,2.3289
367608,1.7149,2.3338
367609,1.7149,2.3305
367610,1.7149,2.3289
367611,1.7020,2.3289
367612,1.7133,2.3338
367613,1.7076,2.3330
367614,1.7149,2.3322
367615,1.7149,2.3314
367616,1.7173,2.3338
367617,1.7165,2.3338
367618,1.7189,2.3330
367619,1.7173,2.3314
367620,1.7197,2.3322
367621,1.7189,2.3515
367622,1.7149,2.3338
367623,1.7149,2.3289
367624,1.7149,2.3322
367625,1.7205,2.3322
367626,1.7141,2.3265
367627,1.7229,2.3305
367628,1.7253,2.3314
367629,1.7189,2.3330
367630,1.7157,2.3289
367631,1.7157,2.3281
367632,1.7205,2.3281
367633,1.7165,2.3322
367634,1.7197,2.3297
367635,1.7173,2.3362
367636,1.7197,2.3273
367637,1.7197,2.3314
367638,1.7157,2.3249
367639,1.7189,2.3362
367640,1.7173,2.3257
367641,1.7189,2.3314
367642,1.7173,2.3338
367643,1.7141,2.3330
367644,1.7149,2.3322
367645,1.7149,2.3322
367646,1.7149,2.3314
367647,1.7149,2.3338
367648,1.7197,2.3281
367649,1.7189,2.3338
367650,1.7157,2.3297
367651,1.7173,2.3314
367652,1.7149,2.3305
367653,1.7141,2.3314
367654,1.7141,2.3394
367655,1.7173,2.3338
367656,1.7181,2.3330
367657,1.7165,2.3338
367658,1.7165,2.3314
367659,1.7157,2.3338
367660,1.7149,2.3289
367661,1.7173,2.3338
367662,1.7189,2.3338
367663,1.7197,2.3322
367664,1.7205,2.3362
367665,1.7165,2.3281
367666,1.7157,2.3080
367667,1.7334,2.3426
367668,1.7173,2.3314
367669,1.7157,2.3330
367670,1.7149,2.3314
367671,1.7165,2.3338
367672,1.7173,2.3338
367673,1.7205,2.3322
367674,1.7149,2.3330
367675,1.7197,2.3338
367676,1.7205,2.3330
367677,1.7157,2.3338
367678,1.7189,2.3330
367679,1.7221,2.3330
367680,1.7165,2.3362
367681,1.7189,2.3346
367682,1.7149,2.3338
367683,1.7133,2.3330
367684,1.7189,2.3354
367685,1.7173,2.3338
367686,1.7149,2.3338
367687,1.7149,2.3370
367688,1.7165,2.3338
367689,1.7237,2.3314
367690,1.7157,2.3346
367691,1.7197,2.3314
367692,1.7165,2.3338
367693,1.7149,2.3338
367694,1.7149,2.3354
367695,1.7157,2.3338
367696,1.6947,2.3346
367697,1.7157,2.3338
367698,1.7149,2.3418
367699,1.7149,2.3370
367700,1.7181,2.3338
367701,1.7189,2.3346
367702,1.7149,2.3628
367703,1.7149,2.3330
367704,1.7165,2.3281
367705,1.7189,2.3338
367706,1.7245,2.3338
367707,1.7221,2.3338
367708,1.7165,2.3362
367709,1.7149,2.3378
367710,1.7149,2.3394
367711,1.7197,2.3338
367712,1.7149,2.3346
367713,1.7157,2.3338
367714,1.7205,2.3362
367715,1.7237,2.3354
367716,1.7149,2.3338
367717,1.7149,2.3378
367718,1.7157,2.3354
367719,1.7157,2.3338
367720,1.7149,2.3346
367721,1.7205,2.3338
367722,1.7149,2.3338
367723,1.7189,2.3684
367724,1.7229,2.3338
367725,1.7108,2.3362
367726,1.7157,2.3370
367727,1.7157,2.3346
367728,1.7165,2.3338
367729,1.7189,2.3338
367730,1.7278,2.3346
367731,1.7149,2.3338
367732,1.7197,2.3297
367733,1.7189,2.3338
367734,1.7205,2.3338
367735,1.7205,2.3338
367736,1.7149,2.3346
367737,1.7149,2.3346
367738,1.7157,2.3378
367739,1.7149,2.3370
367740,1.7157,2.3346
367741,1.7157,2.3330
367742,1.7173,2.3362
367743,1.7229,2.3338
367744,1.7237,2.3378
367745,1.7262,2.3338
367746,1.7229,2.3338
367747,1.7205,2.3338
367748,1.7197,2.3475
367749,1.7181,2.3410
367750,1.7165,2.3346
367751,1.7173,2.3338
367752,1.7197,2.3338
367753,1.7205,2.3354
367754,1.7173,2.3394
367755,1.7245,2.3338
367756,1.7221,2.3378
367757,1.7197,2.3386
367758,1.7245,2.3362
367759,1.7237,2.3354
367760,1.7318,2.3378
367761,1.7229,2.3394
367762,1.7197,2.3386
367763,1.7221,2.3386
367764,1.7221,2.3362
367765,1.7221,2.3394
367766,1.7157,2.3394
367767,1.7189,2.3346
367768,1.7237,2.3370
367769,1.7221,2.3378
367770,1.7253,2.3346
367771,1.7294,2.3370
367772,1.7229,2.3394
367773,1.7189,2.3338
367774,1.7173,2.3394
367775,1.7181,2.3378
367776,1.7197,2.3378
367777,1.7068,2.3386
367778,1.7229,2.3346
367779,1.7205,2.3402
367780,1.7189,2.3362
367781,1.7157,2.3386
367782,1.7237,2.3394
367783,1.7189,2.3402
367784,1.7205,2.3080
367785,1.7229,2.3378
367786,1.7165,2.3354
367787,1.7157,2.3386
367788,1.7270,2.3346
367789,1.6979,2.3386
367790,1.7262,2.3354
367791,1.7374,2.3346
367792,1.7205,2.3378
367793,1.7221,2.3362
367794,1.7253,2.3418
367795,1.7253,2.3402
367796,1.7221,2.3354
367797,1.7165,2.3418
367798,1.7157,2.3338
367799,1.7229,2.3418
367800,1.7262,2.3354
367801,1.7205,2.3378
367802,1.7262,2.3378
367803,1.7270,2.3338
367804,1.7253,2.3370
367805,1.7205,2.3378
367806,1.7221,2.3354
367807,1.7229,2.3394
367808,1.7157,2.3354
367809,1.7229,2.3442
367810,1.7205,2.3394
367811,1.7366,2.3338
367812,1.7189,2.3346
367813,1.7262,2.3338
367814,1.7237,2.3523
367815,1.7262,2.3354
367816,1.7262,2.3338
367817,1.7245,2.3201
367818,1.7253,2.3338
367819,1.7237,2.3346
367820,1.7181,2.3370
367821,1.7253,2.3346
367822,1.7262,2.3338
367823,1.7237,2.3338
367824,1.7270,2.3362
367825,1.7205,2.3426
367826,1.7237,2.3338
367827,1.7270,2.3346
367828,1.7205,2.3338
367829,1.7221,2.3418
367830,1.7229,2.3354
367831,1.7189,2.3362
367832,1.7262,2.3305
367833,1.7318,2.3338
367834,1.7197,2.3354
367835,1.7366,2.3346
367836,1.7262,2.3370
367837,1.7270,2.3338
367838,1.7278,2.3354
367839,1.7262,2.3362
367840,1.7229,2.3330
367841,1.7237,2.3354
367842,1.7213,2.3346
367843,1.7157,2.3322
367844,1.7350,2.3346
367845,1.7197,2.3346
367846,1.7262,2.3338
367847,1.7253,2.3410
367848,1.7245,2.3386
367849,1.7245,2.3322
367850,1.7245,2.3338
367851,1.7278,2.3338
367852,1.7262,2.3338
367853,1.7270,2.3362
367854,1.7229,2.3338
367855,1.7205,2.3362
367856,1.7221,2.3386
367857,1.7286,2.3346
367858,1.7253,2.3354
367859,1.7229,2.3040
367860,1.7262,2.3346
367861,1.7270,2.3338
367862,1.7229,2.3346
367863,1.7270,2.3378
367864,1.7221,2.3338
367865,1.7270,2.3346
367866,1.7270,2.3459
367867,1.7294,2.3354
367868,1.7205,2.3338
367869,1.7270,2.3346
367870,1.7262,2.3338
367871,1.7213,2.3338
367872,1.7270,2.3354
367873,1.7262,2.3354
367874,1.7221,2.3362
367875,1.7253,2.3442
367876,1.7173,2.3281
367877,1.7237,2.3297
367878,1.7205,2.3386
367879,1.7197,2.3338
367880,1.7253,2.3370
367881,1.7294,2.3346
367882,1.7229,2.3338
367883,1.7278,2.3394
367884,1.7270,2.3338
367885,1.7173,2.3346
367886,1.7189,2.3354
367887,1.7278,2.3362
367888,1.7197,2.3418
367889,1.7205,2.3338
367890,1.7270,2.3394
367891,1.7237,2.3056
367892,1.7237,2.3394
367893,1.7270,2.3354
367894,1.7262,2.3338
367895,1.7237,2.3410
367896,1.7237,2.3338
367897,1.7237,2.3338
367898,1.7221,2.3338
367899,1.7205,2.3346
367900,1.7237,2.3338
367901,1.7286,2.3354
367902,1.7286,2.3346
367903,1.7197,2.3297
367904,1.7205,2.3338
367905,1.7149,2.3314
367906,1.7245,2.3314
367907,1.7213,2.3314
367908,1.7157,2.3322
367909,1.7237,2.3322
367910,1.7270,2.3338
367911,1.7253,2.3322
367912,1.7221,2.3338
367913,1.7237,2.3338
367914,1.7205,2.3338
367915,1.7237,2.3338
367916,1.7205,2.3338
367917,1.7197,2.3314
367918,1.7205,2.3338
367919,1.7165,2.3314
367920,1.7253,2.3330
367921,1.7262,2.3233
367922,1.7262,2.3314
367923,1.7278,2.3338
367924,1.7125,2.3314
367925,1.7229,2.3314
367926,1.7253,2.3338
367927,1.7278,2.3314
367928,1.7262,2.3322
367929,1.7253,2.3338
367930,1.7205,2.3281
367931,1.7237,2.3314
367932,1.7197,2.3322
367933,1.7270,2.3322
367934,1.7270,2.3314
367935,1.7237,2.3297
367936,1.7205,2.3281
367937,1.7221,2.3314
367938,1.7318,2.3314
367939,1.7205,2.3249
367940,1.7253,2.3322
367941,1.7221,2.3314
367942,1.7189,2.3289
367943,1.7278,2.3322
367944,1.7221,2.3281
367945,1.7262,2.3225
367946,1.7286,2.3338
367947,1.7262,2.3314
367948,1.7197,2.3322
367949,1.7205,2.3330
367950,1.7253,2.3297
367951,1.7197,2.3289
367952,1.7253,2.3330
367953,1.7197,2.3201
367954,1.7253,2.3314
367955,1.7253,2.3314
367956,1.7237,2.3338
367957,1.7221,2.3338
367958,1.7253,2.3338
367959,1.7237,2.3338
367960,1.7165,2.3338
367961,1.7253,2.3338
367962,1.7286,2.3322
367963,1.7326,2.3314
367964,1.7245,2.3297
367965,1.7318,2.3338
367966,1.7302,2.3362
367967,1.7229,2.3233
367968,1.7253,2.3338
367969,1.7527,2.3338
367970,1.7262,2.3338
367971,1.7262,2.3362
367972,1.7302,2.3322
367973,1.7302,2.3338
367974,1.7262,2.3322
367975,1.7253,2.3515
367976,1.7245,2.3338
367977,1.7302,2.3338
367978,1.7253,2.3338
367979,1.7221,2.3330
367980,1.7278,2.3338
367981,1.7229,2.3346
367982,1.7229,2.3338
367983,1.7270,2.3354
367984,1.7270,2.3354
367985,1.7237,2.3346
367986,1.7189,2.3338
367987,1.7270,2.3386
367988,1.7229,2.3346
367989,1.7262,2.3346
367990,1.7229,2.3652
367991,1.7270,2.3386
367992,1.7302,2.3354
367993,1.7237,2.3378
367994,1.7278,2.3418
367995,1.7262,2.3394
367996,1.7229,2.3386
367997,1.7253,2.3386
367998,1.7229,2.3499
367999,1.7237,2.3168
368000,1.7253,2.3386
368001,1.7229,2.3378
368002,1.7270,2.3386
368003,1.7270,2.3410
368004,1.7286,2.3378
368005,1.7221,2.3386
368006,1.7253,2.3418
368007,1.7253,2.3410
368008,1.7253,2.3426
368009,1.7205,2.3394
368010,1.7253,2.3426
368011,1.7262,2.3354
368012,1.7253,2.3410
368013,1.7399,2.3410
368014,1.7286,2.3459
368015,1.7229,2.3362
368016,1.7286,2.3434
368017,1.7294,2.3426
368018,1.7270,2.3410
368019,1.7294,2.3410
368020,1.7262,2.3442
368021,1.7253,2.3394
368022,1.7262,2.3378
368023,1.7278,2.3410
368024,1.7262,2.3378
368025,1.7229,2.3354
368026,1.7245,2.3434
368027,1.7286,2.3386
368028,1.7253,2.3378
368029,1.7302,2.3362
368030,1.7262,2.3426
368031,1.7278,2.3394
368032,1.7213,2.3434
368033,1.7205,2.3442
368034,1.7253,2.3426
368035,1.7253,2.3410
368036,1.7197,2.3459
368037,1.7245,2.3362
368038,1.7286,2.3467
368039,1.7294,2.3451
368040,1.7286,2.3426
368041,1.7286,2.3418
368042,1.7318,2.3467
368043,1.7286,2.3426
368044,1.7253,2.3426
368045,1.7286,2.3459
368046,1.7294,2.3394
368047,1.7286,2.3426
368048,1.7253,2.3628
368049,1.7286,2.3410
368050,1.7237,2.3394
368051,1.7286,2.3442
368052,1.7262,2.3442
368053,1.7262,2.3451
368054,1.7253,2.3418
368055,1.7294,2.3451
368056,1.7326,2.3467
368057,1.7237,2.3459
368058,1.7229,2.3499
368059,1.7278,2.3459
368060,1.7173,2.3459
368061,1.7229,2.3209
368062,1.7262,2.3459
368063,1.7270,2.3418
368064,1.7278,2.3434
368065,1.7278,2.3483
368066,1.7390,2.3483
368067,1.7294,2.3459
368068,1.7270,2.3442
368069,1.7205,2.3467
368070,1.7278,2.3475
368071,1.7286,2.3442
368072,1.7302,2.3451
368073,1.7262,2.3394
368074,1.7237,2.3451
368075,1.7237,2.3354
368076,1.7318,2.3426
368077,1.7286,2.3426
368078,1.7262,2.3459
368079,1.7286,2.3451
368080,1.7278,2.3467
368081,1.7253,2.3442
368082,1.7278,2.3426
368083,1.7350,2.3459
368084,1.7318,2.3475
368085,1.7318,2.3539
368086,1.7020,2.3451
368087,1.7044,2.3459
368088,1.7270,2.3434
368089,1.7286,2.3459
368090,1.7318,2.3459
368091,1.7326,2.3467
368092,1.7262,2.3459
368093,1.7286,2.3475
368094,1.7262,2.3491
368095,1.7302,2.3338
368096,1.7278,2.3507
368097,1.7270,2.3571
368098,1.7302,2.3483
368099,1.7294,2.3547
368100,1.7278,2.3555
368101,1.7286,2.3451
368102,1.7294,2.3539
368103,1.7318,2.3539
368104,1.7229,2.3547
368105,1.7028,2.3555
368106,1.7326,2.3588
368107,1.7253,2.3588
368108,1.7318,2.3596
368109,1.7278,2.3547
368110,1.7326,2.3555
368111,1.7294,2.3596
368112,1.7157,2.3636
368113,1.7358,2.3604
368114,1.7302,2.3668
368115,1.7286,2.3644
368116,1.7326,2.3644
368117,1.7350,2.3652
368118,1.7350,2.3700
368119,1.7302,2.3426
368120,1.7334,2.3700
368121,1.7334,2.3708
368122,1.7326,2.3733
368123,1.7334,2.3773
368124,1.7390,2.3781
368125,1.7374,2.3813
368126,1.7358,2.3829
368127,1.7318,2.3853
368128,1.7382,2.3853
368129,1.7407,2.3886
368130,1.7350,2.3950
368131,1.7326,2.3958
368132,1.7350,2.4023
368133,1.7399,2.4095
368134,1.7334,2.4111
368135,1.7350,2.4192
368136,1.7390,2.4232
368137,1.7632,2.4321
368138,1.7407,2.4369
368139,1.7358,2.4426
368140,1.7447,2.4538
368141,1.7503,2.4627
368142,1.7407,2.4667
368143,1.7407,2.4748
368144,1.7447,2.4909
368145,1.7463,2.5022
368146,1.7519,2.5135
368147,1.7544,2.5215
368148,1.7487,2.5360
368149,1.7527,2.5401
368150,1.7552,2.5562
368151,1.7544,2.5667
368152,1.7592,2.5763
368153,1.7527,2.5916
368154,1.7519,2.6086
368155,1.7584,2.6190
368156,1.7648,2.6344
368157,1.7616,2.6456
368158,1.7664,2.6642
368159,1.7632,2.6867
368160,1.7624,2.6908
368161,1.7689,2.6996
368162,1.7656,2.7133
368163,1.7753,2.7254
368164,1.7769,2.7448
368165,1.7777,2.7512
368166,1.7793,2.7641
368167,1.7737,2.7794
368168,1.7801,2.7979
368169,1.7882,2.7939
368170,1.7874,2.8181
368171,1.7866,2.8133
368172,1.7906,2.8399
368173,1.7874,2.8511
368174,1.7922,2.8503
368175,1.8011,2.8737
368176,1.7930,2.8850
368177,1.7979,2.8874
368178,1.7898,2.9067
368179,1.7955,2.9212
368180,1.7979,2.9269
368181,1.8011,2.9414
368182,1.8011,2.9503
368183,1.8027,2.9599
368184,1.8075,2.9736
368185,1.7971,2.9817
368186,1.7971,2.9905
368187,1.8019,2.9970
368188,1.8011,3.0026
368189,1.8051,3.0212
368190,1.8067,3.0268
368191,1.8067,3.0308
368192,1.8051,3.0131
368193,1.8092,3.0373
368194,1.8059,3.0727
368195,1.8140,3.0518
368196,1.8075,3.0582
368197,1.8051,3.0615
368198,1.8075,3.0711
368199,1.8051,3.0727
368200,1.8124,3.0816
368201,1.8059,3.0816
368202,1.8059,3.0840
368203,1.8067,3.0945
368204,1.8108,3.0929
368205,1.8051,3.0977
368206,1.8075,3.0969
368207,1.8092,3.1066
368208,1.8051,3.1058
368209,1.8043,3.1026
368210,1.8059,3.1018
368211,1.8003,3.1098
368212,1.7963,3.1122
368213,1.7995,3.1195
368214,1.7955,3.1098
368215,1.8011,3.1122
368216,1.8035,3.1090
368217,1.8003,3.1155
368218,1.7955,3.1155
368219,1.8011,3.1130
368220,1.7963,3.1163
368221,1.7922,3.1147
368222,1.7971,3.1203
368223,1.7979,3.1195
368224,1.7995,3.1195
368225,1.7882,3.1195
368226,1.8003,3.1203
368227,1.7971,3.1195
368228,1.7963,3.1155
368229,1.7938,3.1243
368230,1.7882,3.1219
368231,1.7834,3.1670
368232,1.7906,3.1122
368233,1.7818,3.1034
368234,1.7818,3.1332
368235,1.7922,3.1122
368236,1.7882,3.1324
368237,1.7914,3.1235
368238,1.7737,3.1292
368239,1.7834,3.1211
368240,1.7785,3.1372
368241,1.7922,3.1316
368242,1.7801,3.1292
368243,1.7834,3.1332
368244,1.7721,3.1308
368245,1.7801,3.1340
368246,1.7785,3.1372
368247,1.7793,3.1372
368248,1.7785,3.1340
368249,1.7769,3.1050
368250,1.7705,3.1388
368251,1.7777,3.1437
368252,1.7745,3.1437
368253,1.7689,3.1477
368254,1.7681,3.1412
368255,1.7721,3.1445
368256,1.7713,3.1525
368257,1.7705,3.1421
368258,1.7681,3.1598
368259,1.7697,3.1332
368260,1.7705,3.1388
368261,1.7681,3.1453
368262,1.7721,3.1364
368263,1.7664,3.1356
368264,1.7689,3.1332
368265,1.7656,3.1324
368266,1.7624,3.1300
368267,1.7664,3.1332
368268,1.7681,3.1243
368269,1.7664,3.1638
368270,1.7624,3.1324
368271,1.7664,3.1259
368272,1.7664,3.1195
368273,1.7608,3.1203
368274,1.7664,3.1179
368275,1.7640,3.1106
368276,1.7656,3.1114
368277,1.7689,3.1098
368278,1.7640,3.1082
368279,1.7640,3.1034
368280,1.7689,3.1001
368281,1.7592,3.0921
368282,1.7656,3.1001
368283,1.7664,3.0864
368284,1.7560,3.0905
368285,1.7568,3.0905
368286,1.7624,3.0889
368287,1.7576,3.0816
368288,1.7664,3.0824
368289,1.7576,3.0808
368290,1.7536,3.0824
368291,1.7761,3.0727
368292,1.7664,3.0744
368293,1.7616,3.0687
368294,1.7624,3.0429
368295,1.7592,3.0607
368296,1.7810,3.0574
368297,1.7656,3.0574
368298,1.7608,3.0486
368299,1.7648,3.0558
368300,1.7568,3.0542
368301,1.7560,3.0316
368302,1.7592,3.0582
368303,1.7616,3.0462
368304,1.7656,3.0421
368305,1.7592,3.0478
368306,1.7616,3.0542
368307,1.7584,3.0381
368308,1.7632,3.0357
368309,1.7576,3.0325
368310,1.7584,3.0300
368311,1.7648,3.0292
368312,1.7560,3.0260
368313,1.7801,3.0179
368314,1.7608,3.0470
368315,1.7544,3.0244
368316,1.7560,3.0155
368317,1.7536,3.0115
368318,1.7552,3.0099
368319,1.7527,3.0131
368320,1.7519,3.0042
368321,1.7584,3.0042
368322,1.7592,3.0034
368323,1.7544,2.9768
368324,1.7592,3.0026
368325,1.7544,2.9970
368326,1.7552,2.9889
368327,1.7552,2.9809
368328,1.7640,2.9873
368329,1.7536,2.9857
368330,1.7576,2.9817
368331,1.7527,2.9744
368332,1.7592,2.9672
368333,1.7552,3.0042
368334,1.7568,2.9503
368335,1.7576,2.9382
368336,1.7616,2.9341
368337,1.7519,2.9245
368338,1.7648,2.9116
368339,1.7616,2.9019
368340,1.7544,2.8874
368341,1.7527,2.8753
368342,1.7511,2.8656
368343,1.7536,2.8600
368344,1.7568,2.8479
368345,1.7519,2.8423
368346,1.7552,2.8253
368347,1.7536,2.8116
368348,1.7544,2.8004
368349,1.7536,2.7939
368350,1.7560,2.7770
368351,1.7536,2.7649
368352,1.7503,2.7585
368353,1.7479,2.7423
368354,1.7447,2.7246
368355,1.7544,2.7206
368356,1.7503,2.7101
368357,1.7511,2.6948
368358,1.7536,2.6875
368359,1.7431,2.6738
368360,1.7447,2.6642
368361,1.7463,2.6537
368362,1.7479,2.6432
368363,1.7495,2.6295
368364,1.7463,2.6158
368365,1.7495,2.6062
368366,1.7511,2.5916
368367,1.7431,2.5828
368368,1.7511,2.5731
368369,1.7463,2.5514
368370,1.7431,2.5393
368371,1.7415,2.5062
368372,1.7423,2.5070
368373,1.7463,2.4893
368374,1.7431,2.4708
368375,1.7399,2.4538
368376,1.7407,2.4538
368377,1.7423,2.4458
368378,1.7423,2.4393
368379,1.7407,2.4401
368380,1.7399,2.4369
368381,1.7447,2.4361
368382,1.7382,2.4345
368383,1.7399,2.4369
368384,1.7415,2.4337
368385,1.7407,2.4321
368386,1.7407,2.4369
368387,1.7407,2.4353
368388,1.7382,2.4184
368389,1.7447,2.4313
368390,1.7407,2.4393
368391,1.7439,2.4329
368392,1.7407,2.4313
368393,1.7479,2.4321
368394,1.7431,2.4273
368395,1.7415,2.4329
368396,1.7463,2.4248
368397,1.7463,2.4313
368398,1.7479,2.4297
368399,1.7439,2.4297
368400,1.7423,2.4313
368401,1.7439,2.4313
368402,1.7455,2.4313
368403,1.7431,2.4313
368404,1.7519,2.4160
368405,1.7536,2.4297
368406,1.7447,2.4297
368407,1.7447,2.4313
368408,1.7503,2.4321
368409,1.7495,2.4361
368410,1.7544,2.4313
368411,1.7544,2.4313
368412,1.7536,2.4361
368413,1.7511,2.4337
368414,1.7495,2.4321
368415,1.7527,2.4369
368416,1.7503,2.4361
368417,1.7568,2.4345
368418,1.7536,2.4329
368419,1.7608,2.4353
368420,1.7624,2.4369
368421,1.7568,2.4321
368422,1.7576,2.4361
368423,1.7576,2.4353
368424,1.7608,2.4361
368425,1.7536,2.4369
368426,1.7640,2.4369
368427,1.7664,2.4385
368428,1.7616,2.4377
368429,1.7592,2.4369
368430,1.7640,2.4385
368431,1.7648,2.4385
368432,1.7624,2.4385
368433,1.7624,2.4426
368434,1.7560,2.4442
368435,1.7624,2.4426
368436,1.7592,2.4418
368437,1.7600,2.4458
368438,1.7527,2.4482
368439,1.7648,2.4482
368440,1.7664,2.4466
368441,1.7664,2.4490
368442,1.7648,2.4506
368443,1.7624,2.4498
368444,1.7648,2.4482
368445,1.7689,2.4514
368446,1.7584,2.4530
368447,1.7624,2.4474
368448,1.7664,2.4587
368449,1.7664,2.4571
368450,1.7673,2.4667
368451,1.7664,2.4627
368452,1.7673,2.4619
368453,1.7664,2.4627
368454,1.7664,2.4627
368455,1.7648,2.4716
368456,1.7664,2.4700
368457,1.7664,2.4635
368458,1.7721,2.4667
368459,1.7664,2.4748
368460,1.7673,2.4861
368461,1.7745,2.4877
368462,1.7737,2.4901
368463,1.7713,2.4893
368464,1.7721,2.4933
368465,1.7705,2.4933
368466,1.7713,2.4885
368467,1.7745,2.5038
368468,1.7777,2.5046
368469,1.7777,2.5111
368470,1.7737,2.5151
368471,1.7850,2.5215
368472,1.7737,2.5248
368473,1.7769,2.5481
368474,1.7769,2.5320
368475,1.7793,2.5401
368476,1.7801,2.5796
368477,1.7745,2.5554
368478,1.7785,2.5651
368479,1.7737,2.5715
368480,1.7801,2.5659
368481,1.7793,2.5868
368482,1.7777,2.6021
368483,1.7842,2.6150
368484,1.7922,2.6295
368485,1.7810,2.6432
368486,1.7801,2.6658
368487,1.7850,2.6851
368488,1.7906,2.7077
368489,1.7898,2.7440
368490,1.7963,2.7577
368491,1.7914,2.7762
368492,1.7947,2.7979
368493,1.8011,2.8253
368494,1.7979,2.8479
368495,1.8011,2.8648
368496,1.8059,2.9011
368497,1.8035,2.9212
368498,1.8043,2.9406
368499,1.8132,2.9632
368500,1.8124,2.9809
368501,1.8027,3.0059
368502,1.7874,3.0131
368503,1.8043,3.0381
368504,1.8180,3.0566
368505,1.8140,3.0744
368506,1.8253,3.0977
368507,1.8140,3.1082
368508,1.8261,3.1243
368509,1.8253,3.1348
368510,1.8325,3.1936
368511,1.8309,3.1719
368512,1.8325,3.1848
368513,1.8309,3.2130
368514,1.8366,3.2105
368515,1.8341,3.2130
368516,1.8406,3.2218
368517,1.8438,3.2597
368518,1.8454,3.2516
368519,1.8422,3.2710
368520,1.8462,3.2790
368521,1.8446,3.2936
368522,1.8438,3.3000
368523,1.8430,3.3000
368524,1.8446,3.3000
368525,1.8478,3.3000
368526,1.8390,3.3000
368527,1.8462,3.3000
368528,1.8446,3.3000
368529,1.8430,3.3000
368530,1.8422,3.3000
368531,1.8438,3.3000
368532,1.8438,3.3000
368533,1.8438,3.3000
368534,1.8414,3.3000
368535,1.8438,3.3000
368536,1.8398,3.3000
368537,1.8438,3.3000
368538,1.8446,3.3000
368539,1.8462,3.3000
368540,1.8438,3.3000
368541,1.8446,3.3000
368542,1.8382,3.3000
368543,1.8478,3.3000
368544,1.8438,3.3000
368545,1.8438,3.3000
368546,1.8438,3.3000
368547,1.8349,3.3000
368548,1.8366,3.3000
368549,1.8349,3.3000
368550,1.8406,3.3000
368551,1.8309,3.3000
368552,1.8140,3.3000
368553,1.8398,3.3000
368554,1.8285,3.3000
368555,1.8261,3.3000
368556,1.8333,3.3000
368557,1.8277,3.3000
368558,1.8253,3.3000
368559,1.8366,3.3000
368560,1.8253,3.3000
368561,1.8261,3.3000
368562,1.8172,3.3000
368563,1.8253,3.3000
368564,1.8204,3.3000
368565,1.8237,3.3000
368566,1.8261,3.3000
368567,1.8164,3.3000
368568,1.8172,3.3000
368569,1.8156,3.3000
368570,1.8172,3.3000
368571,1.8164,3.3000
368572,1.8124,3.3000
368573,1.8100,3.3000
368574,1.8132,3.3000
368575,1.8100,3.3000
368576,1.8124,3.3000
368577,1.8108,3.3000
368578,1.7874,3.3000
368579,1.8051,3.3000
368580,1.8180,3.3000
368581,1.8051,3.3000
