time_ms,ch1_v,ch2_v
71798,2.0904,2.6593
71799,2.0848,2.6811
71800,2.0622,2.6932
71801,2.1017,2.6819
71802,2.1025,2.6722
71803,2.1114,2.6513
71804,2.1089,2.6271
71805,2.1073,2.6070
71806,2.1049,2.5828
71807,2.1017,2.5554
71808,2.0904,2.5385
71809,2.0928,2.5280
71810,2.0936,2.5401
71811,2.0928,2.5288
71812,2.0936,2.5755
71813,2.0944,2.5989
71814,2.0993,2.6215
71815,2.0920,2.6432
71816,2.1017,2.6473
71817,2.1138,2.6489
71818,2.1154,2.6432
71819,2.1194,2.6199
71820,2.1226,2.6053
71821,2.1218,2.5812
71822,2.1234,2.5618
71823,2.1186,2.5497
71824,2.1105,2.5151
71825,2.1017,2.5038
71826,2.1025,2.5006
71827,2.1009,2.5103
71828,2.1065,2.5320
71829,2.1041,2.5497
71830,2.1017,2.5699
71831,2.1057,2.5925
71832,2.1186,2.6005
71833,2.1065,2.6045
71834,2.1025,2.5925
71835,2.1041,2.5747
71836,2.1033,2.5586
71837,2.0977,2.5328
71838,2.0904,2.5143
71839,2.0864,2.4941
71840,2.0904,2.4667
71841,2.0622,2.4450
71842,2.0622,2.4329
71843,2.0558,2.4256
71844,2.0509,2.4426
71845,2.0582,2.4506
71846,2.0558,2.4885
71847,2.0558,2.5103
71848,2.0549,2.5248
71849,2.0622,2.5377
71850,2.0622,2.5280
71851,2.0622,2.5183
71852,2.0622,2.5095
71853,2.0622,2.4845
71854,2.0549,2.4635
71855,2.0501,2.4410
71856,2.0501,2.4216
71857,2.0461,2.4023
71858,2.0396,2.3837
71859,2.0324,2.3797
71860,2.0275,2.3870
71861,2.0316,2.3958
71862,2.0267,2.4200
71863,2.0292,2.4426
71864,2.0324,2.4700
71865,2.0364,2.4974
71866,2.0429,2.5095
71867,2.0541,2.5143
71868,2.0622,2.5062
71869,2.0622,2.4885
71870,2.0622,2.4708
71871,2.0622,2.4474
71872,2.0622,2.4313
71873,2.0622,2.4248
71874,2.0517,2.3958
71875,2.0622,2.3853
71876,2.0622,2.3910
71877,2.0549,2.4087
71878,2.0622,2.4289
71879,2.0622,2.4506
71880,2.0622,2.4700
71881,2.0622,2.4845
71882,2.0622,2.5352
71883,2.0622,2.5530
71884,2.0832,2.5683
71885,2.0928,2.5699
71886,2.0977,2.5618
71887,2.0936,2.5522
71888,2.1017,2.5328
71889,2.1009,2.5127
71890,2.0977,2.4925
71891,2.0960,2.4740
71892,2.0904,2.4684
71893,2.0856,2.4845
71894,2.0880,2.4998
71895,2.0848,2.5199
71896,2.0888,2.5425
71897,2.0912,2.5659
71898,2.0880,2.5916
71899,2.0888,2.6207
71900,2.0985,2.6352
71901,2.0944,2.6456
71902,2.1041,2.6408
71903,2.1081,2.6344
71904,2.1033,2.6126
71905,2.1049,2.5892
71906,2.1017,2.5675
71907,2.0968,2.5425
71908,2.0928,2.5320
71909,2.0912,2.5183
71910,2.0896,2.5449
71911,2.0904,2.5739
71912,2.0920,2.5876
71913,2.0896,2.5916
71914,2.0912,2.6344
71915,2.0864,2.6569
71916,2.0912,2.6738
71917,2.0960,2.6988
71918,2.0928,2.6948
71919,2.1017,2.6892
71920,2.1009,2.6634
71921,2.1017,2.6174
71922,2.0977,2.6182
71923,2.0936,2.5925
71924,2.0872,2.5296
71925,2.0856,2.5699
71926,2.0840,2.5659
71927,2.0815,2.5747
71928,2.0815,2.5916
71929,2.0807,2.6134
71930,2.0622,2.6473
71931,2.0799,2.6473
71932,2.0622,2.6940
71933,2.0840,2.6988
71934,2.0622,2.6996
71935,2.0815,2.6867
71936,2.0622,2.6690
71937,2.0622,2.6440
71938,2.0622,2.6271
71939,2.0622,2.5916
71940,2.0558,2.5683
71941,2.0558,2.5417
71942,2.0517,2.5360
71943,2.0517,2.5401
71944,2.0501,2.5586
71945,2.0501,2.5739
71946,2.0509,2.5933
71947,2.0517,2.6142
71948,2.0501,2.6448
71949,2.0525,2.6618
71950,2.0590,2.6634
71951,2.0622,2.6553
71952,2.0622,2.6174
71953,2.0622,2.6094
71954,2.0622,2.5900
71955,2.0582,2.5659
71956,2.0517,2.5385
71957,2.0485,2.5143
71958,2.0477,2.5127
71959,2.0445,2.4909
71960,2.0356,2.5062
71961,2.0445,2.5183
71962,2.0396,2.5409
71963,2.0372,2.5618
71964,2.0380,2.5828
71965,2.0396,2.6070
71966,2.0445,2.6215
71967,2.0501,2.6384
71968,2.0582,2.6311
71969,2.0622,2.6118
71970,2.0622,2.5925
71971,2.0622,2.5667
71972,2.0622,2.5481
71973,2.0622,2.5272
71974,2.0582,2.5022
71975,2.0549,2.4901
71976,2.0517,2.4933
71977,2.0501,2.5038
71978,2.0509,2.5248
71979,2.0549,2.5417
71980,2.0541,2.5441
71981,2.0558,2.5908
71982,2.0501,2.6134
71983,2.0622,2.6311
71984,2.0622,2.6319
71985,2.0799,2.6295
71986,2.0912,2.6094
71987,2.0848,2.5900
71988,2.0848,2.5586
71989,2.0872,2.5433
71990,2.0848,2.5223
71991,2.0622,2.4998
71992,2.0622,2.4998
71993,2.0622,2.5022
71994,2.0622,2.5143
71995,2.0622,2.5368
71996,2.0622,2.5554
71997,2.0622,2.5796
71998,2.0622,2.6037
71999,2.0622,2.6223
72000,2.0622,2.6432
72001,2.0840,2.6392
72002,2.0912,2.6279
72003,2.0896,2.6102
72004,2.0912,2.5908
72005,2.0880,2.5667
72006,2.0904,2.5425
72007,2.0622,2.5223
72008,2.0622,2.5006
72009,2.0622,2.5038
72010,2.0622,2.5143
72011,2.0622,2.5312
72012,2.0622,2.5514
72013,2.0574,2.5707
72014,2.0614,2.5949
72015,2.0622,2.6215
72016,2.0622,2.6424
72017,2.0622,2.6513
72018,2.0856,2.6432
72019,2.0912,2.6255
72020,2.0904,2.5957
72021,2.0904,2.5908
72022,2.0896,2.5634
72023,2.0864,2.5368
72024,2.0832,2.5159
72025,2.0622,2.5038
72026,2.0622,2.5095
72027,2.0622,2.5232
72028,2.0622,2.5409
72029,2.0622,2.5659
72030,2.0622,2.5876
72031,2.0622,2.6102
72032,2.0622,2.6360
72033,2.0622,2.6481
72034,2.0815,2.6545
72035,2.0888,2.6553
72036,2.0912,2.6392
72037,2.0960,2.6207
72038,2.0944,2.5957
72039,2.0904,2.5788
72040,2.0880,2.5465
72041,2.0815,2.5360
72042,2.0815,2.5183
72043,2.0622,2.5256
72044,2.0622,2.5409
72045,2.0622,2.5651
72046,2.0622,2.5908
72047,2.0622,2.6102
72048,2.0622,2.6319
72049,2.0622,2.6489
72050,2.0622,2.6795
72051,2.0864,2.6795
72052,2.0968,2.6666
72053,2.1001,2.6489
72054,2.1009,2.6303
72055,2.1001,2.5981
72056,2.0904,2.5779
72057,2.0944,2.5538
72058,2.0896,2.5385
72059,2.0888,2.5360
72060,2.0864,2.5352
72061,2.0799,2.5651
72062,2.0848,2.5836
72063,2.0832,2.6037
72064,2.0622,2.6295
72065,2.0840,2.6553
72066,2.0815,2.6714
72067,2.0896,2.6867
72068,2.0977,2.7166
72069,2.1017,2.6795
72070,2.1073,2.6561
72071,2.1073,2.6360
72072,2.1073,2.6118
72073,2.0993,2.5916
72074,2.0985,2.5739
72075,2.0936,2.5457
72076,2.0904,2.5570
72077,2.0928,2.5659
72078,2.0936,2.5868
72079,2.0928,2.6045
72080,2.0888,2.6287
72081,2.0888,2.6481
72082,2.0864,2.6738
72083,2.0928,2.6956
72084,2.1017,2.6972
72085,2.1025,2.6988
72086,2.1073,2.6819
72087,2.1097,2.6674
72088,2.1114,2.6416
72089,2.1073,2.6190
72090,2.1017,2.5884
72091,2.0993,2.5683
72092,2.0928,2.5634
72093,2.0928,2.5659
72094,2.0928,2.5828
72095,2.0904,2.6037
72096,2.0912,2.6190
72097,2.0888,2.6432
72098,2.0904,2.6690
72099,2.0928,2.6932
72100,2.0920,2.7101
72101,2.0977,2.7166
72102,2.1041,2.7045
72103,2.1057,2.6867
72104,2.1049,2.6674
72105,2.1017,2.6432
72106,2.1009,2.6174
72107,2.0993,2.5900
72108,2.0928,2.5675
72109,2.0896,2.5699
72110,2.0896,2.5788
72111,2.0880,2.5941
72112,2.0864,2.6102
72113,2.0864,2.6311
72114,2.0840,2.6601
72115,2.0832,2.6771
72116,2.0856,2.7004
72117,2.0896,2.7125
72118,2.0944,2.7149
72119,2.1017,2.6940
72120,2.1017,2.6690
72121,2.1017,2.6505
72122,2.0977,2.6174
72123,2.0928,2.5965
72124,2.0944,2.5683
72125,2.0888,2.5586
72126,2.0840,2.5699
72127,2.0815,2.5763
72128,2.0840,2.5916
72129,2.0840,2.6134
72130,2.0799,2.6344
72131,2.0622,2.6577
72132,2.0832,2.6779
72133,2.0815,2.6996
72134,2.0848,2.7149
72135,2.0944,2.7125
72136,2.1009,2.6948
72137,2.1033,2.6706
72138,2.1041,2.6464
72139,2.1017,2.6174
72140,2.1001,2.5925
72141,2.0920,2.5699
72142,2.0872,2.5651
72143,2.0904,2.5699
72144,2.0864,2.5828
72145,2.0840,2.6005
72146,2.0872,2.6199
72147,2.0896,2.6432
72148,2.0832,2.6690
72149,2.0622,2.6916
72150,2.0872,2.7053
72151,2.0912,2.7109
72152,2.1089,2.6996
72153,2.1170,2.6803
72154,2.1138,2.6561
72155,2.1146,2.6344
72156,2.1154,2.6086
72157,2.1057,2.5796
72158,2.1057,2.5586
72159,2.1017,2.5570
72160,2.1025,2.5675
72161,2.1009,2.5820
72162,2.1017,2.6037
72163,2.1017,2.6199
72164,2.1017,2.6432
72165,2.1017,2.6714
72166,2.0993,2.6867
72167,2.1033,2.7037
72168,2.1154,2.6956
72169,2.1251,2.6900
72170,2.1259,2.6666
72171,2.1275,2.6432
72172,2.1259,2.6182
72173,2.1202,2.5941
72174,2.1170,2.5699
72175,2.1130,2.5522
72176,2.1138,2.5570
72177,2.1097,2.5667
72178,2.1097,2.5836
72179,2.1130,2.6029
72180,2.1105,2.6223
72181,2.1041,2.6577
72182,2.1089,2.6747
72183,2.1275,2.6892
72184,2.1138,2.6948
72185,2.1178,2.6867
72186,2.1162,2.6682
72187,2.1218,2.6537
72188,2.1194,2.6263
72189,2.1138,2.6005
72190,2.1105,2.5763
72191,2.1017,2.5554
72192,2.1001,2.5457
72193,2.0840,2.5530
72194,2.0936,2.5675
72195,2.0944,2.5828
72196,2.0904,2.6078
72197,2.0864,2.6263
72198,2.0872,2.6489
72199,2.0622,2.6706
72200,2.0944,2.6932
72201,2.1017,2.6948
72202,2.1089,2.6859
72203,2.1130,2.6690
72204,2.1097,2.6448
72205,2.1049,2.6199
72206,2.1065,2.5973
72207,2.1009,2.5715
72208,2.0993,2.5530
72209,2.0993,2.5505
72210,2.0944,2.5618
72211,2.0896,2.5771
72212,2.0912,2.6005
72213,2.0985,2.6174
72214,2.0896,2.6392
72215,2.0896,2.6618
72216,2.0896,2.6819
72217,2.0993,2.7029
72218,2.1041,2.6996
72219,2.1073,2.6916
72220,2.1097,2.6698
72221,2.1162,2.6440
72222,2.1194,2.6231
72223,2.1033,2.5941
72224,2.1001,2.5683
72225,2.1017,2.5602
72226,2.1009,2.5634
72227,2.0977,2.5691
72228,2.0928,2.5852
72229,2.1017,2.6086
72230,2.0880,2.6287
72231,2.0912,2.6545
72232,2.0888,2.6747
72233,2.0622,2.6956
72234,2.0977,2.7133
72235,2.1073,2.7109
72236,2.1146,2.6956
72237,2.1202,2.6811
72238,2.1186,2.6553
72239,2.1202,2.6319
72240,2.1170,2.6037
72241,2.1122,2.5820
72242,2.1130,2.5739
72243,2.1105,2.5788
72244,2.1154,2.5916
72245,2.1122,2.6150
72246,2.1089,2.6319
72247,2.1017,2.6553
72248,2.1251,2.6795
72249,2.1097,2.6980
72250,2.1146,2.7214
72251,2.1186,2.7335
72252,2.1234,2.7335
72253,2.1275,2.7214
72254,2.1331,2.6988
72255,2.1299,2.6771
72256,2.1275,2.6481
72257,2.1234,2.6215
72258,2.1170,2.6037
72259,2.1162,2.5957
72260,2.1267,2.6102
72261,2.1122,2.6182
72262,2.1162,2.6360
72263,2.1089,2.6618
72264,2.0936,2.6843
72265,2.1073,2.7069
72266,2.1122,2.7238
72267,2.1105,2.7464
72268,2.1178,2.7568
72269,2.1194,2.7464
72270,2.1186,2.7319
72271,2.1267,2.7037
72272,2.1194,2.6747
72273,2.1178,2.6473
72274,2.1130,2.6199
72275,2.1041,2.6150
72276,2.1041,2.6174
72277,2.0993,2.6295
72278,2.1025,2.6424
72279,2.1025,2.6666
72280,2.1057,2.6908
72281,2.1017,2.7085
72282,2.1001,2.7335
72283,2.1017,2.7472
72284,2.1017,2.7649
72285,2.1025,2.7673
72286,2.1017,2.7488
72287,2.1025,2.7303
72288,2.1025,2.6980
72289,2.1146,2.6706
72290,2.0936,2.6432
72291,2.0896,2.6174
72292,2.0823,2.6174
72293,2.0832,2.6182
72294,2.0622,2.6295
72295,2.0622,2.6481
72296,2.0622,2.6690
72297,2.0622,2.6867
72298,2.0622,2.7101
72299,2.0622,2.7295
72300,2.0622,2.7464
72301,2.0622,2.7504
72302,2.0832,2.7343
72303,2.0622,2.6996
72304,2.0622,2.6819
72305,2.0622,2.6513
72306,2.0541,2.6247
72307,2.0525,2.5957
72308,2.0461,2.5747
72309,2.0412,2.5763
72310,2.0396,2.5884
72311,2.0445,2.6021
72312,2.0412,2.6231
72313,2.0396,2.6360
72314,2.0396,2.6642
72315,2.0396,2.6827
72316,2.0493,2.7077
72317,2.0485,2.7166
72318,2.0598,2.7133
72319,2.0622,2.7037
72320,2.0622,2.6843
72321,2.0622,2.6561
72322,2.0622,2.6295
72323,2.0622,2.6094
72324,2.0622,2.5763
72325,2.0598,2.5570
72326,2.0558,2.5610
72327,2.0606,2.5715
72328,2.0574,2.5884
72329,2.0558,2.5941
72330,2.0590,2.6279
72331,2.0590,2.6529
72332,2.0533,2.6698
72333,2.0598,2.6948
72334,2.0928,2.7053
72335,2.0807,2.6940
72336,2.0880,2.6819
72337,2.0904,2.6577
72338,2.0888,2.6384
72339,2.0896,2.6086
72340,2.0848,2.5868
72341,2.0622,2.5546
72342,2.0622,2.5546
72343,2.0622,2.5554
72344,2.0622,2.5739
72345,2.0622,2.5892
72346,2.0622,2.6126
72347,2.0622,2.6336
72348,2.0622,2.6553
72349,2.0622,2.6730
72350,2.0622,2.6948
72351,2.0880,2.7182
72352,2.0936,2.6948
72353,2.1025,2.6811
72354,2.1041,2.6553
72355,2.1025,2.6344
72356,2.1001,2.6102
72357,2.0944,2.5884
72358,2.0952,2.5634
72359,2.0880,2.5497
72360,2.0888,2.5667
72361,2.0888,2.5908
72362,2.0872,2.5989
72363,2.0912,2.6231
72364,2.0799,2.6424
72365,2.0840,2.6650
72366,2.0880,2.6908
72367,2.0944,2.7069
72368,2.1017,2.7061
72369,2.1041,2.6932
72370,2.1025,2.6714
72371,2.1073,2.6537
72372,2.1057,2.6223
72373,2.1025,2.6013
72374,2.0977,2.5779
72375,2.0960,2.5618
72376,2.0936,2.5667
72377,2.0928,2.5602
72378,2.0896,2.5884
72379,2.0880,2.6150
72380,2.0832,2.6327
72381,2.0864,2.6553
72382,2.0888,2.6763
72383,2.0856,2.6940
72384,2.0936,2.7101
72385,2.0993,2.7109
72386,2.1041,2.6948
72387,2.1089,2.6763
72388,2.1073,2.6489
72389,2.1057,2.6231
72390,2.1017,2.5973
72391,2.1009,2.5747
72392,2.0928,2.5651
72393,2.0912,2.5683
72394,2.0888,2.5925
72395,2.0896,2.6070
72396,2.0848,2.6231
72397,2.0880,2.6432
72398,2.0888,2.6666
72399,2.0888,2.6908
72400,2.0920,2.7061
72401,2.0912,2.7206
72402,2.1017,2.7109
72403,2.1073,2.6956
72404,2.1097,2.6706
72405,2.1097,2.6473
72406,2.1073,2.6231
72407,2.0977,2.5973
72408,2.0968,2.5796
72409,2.0936,2.5715
72410,2.0936,2.5844
72411,2.0928,2.5973
72412,2.0912,2.6094
72413,2.0896,2.6182
72414,2.0864,2.6545
72415,2.0840,2.6835
72416,2.0912,2.7069
72417,2.0912,2.7206
72418,2.0968,2.7343
72419,2.1073,2.7335
72420,2.1170,2.7004
72421,2.1146,2.6948
72422,2.1218,2.6690
72423,2.1162,2.6513
72424,2.1122,2.6215
72425,2.1057,2.6166
72426,2.1065,2.6062
72427,2.1033,2.6134
72428,2.1089,2.6327
72429,2.1057,2.6505
72430,2.1025,2.6698
72431,2.1089,2.6948
72432,2.1025,2.7125
72433,2.1017,2.7351
72434,2.1081,2.7440
72435,2.1122,2.7673
72436,2.1170,2.7496
72437,2.1186,2.7335
72438,2.1226,2.7101
72439,2.1186,2.6867
72440,2.1186,2.6585
72441,2.1154,2.6336
72442,2.1089,2.6231
72443,2.1097,2.6279
72444,2.1057,2.6473
72445,2.1089,2.6561
72446,2.1065,2.6843
72447,2.1049,2.6892
72448,2.1025,2.7383
72449,2.1041,2.7440
72450,2.1033,2.7601
72451,2.1033,2.7770
72452,2.1146,2.7794
72453,2.1170,2.7633
72454,2.1154,2.7415
72455,2.1162,2.7125
72456,2.1154,2.6867
72457,2.1089,2.6561
72458,2.1057,2.6408
72459,2.1073,2.6424
72460,2.1009,2.6545
72461,2.0960,2.6585
72462,2.1017,2.6763
72463,2.0977,2.6988
72464,2.0977,2.7206
72465,2.0936,2.7440
72466,2.0936,2.7697
72467,2.0993,2.7810
72468,2.0977,2.7907
72469,2.0993,2.7778
72470,2.0928,2.7520
72471,2.1009,2.7278
72472,2.0928,2.7085
72473,2.0840,2.6690
72474,2.0622,2.6174
72475,2.0622,2.6231
72476,2.0622,2.6352
72477,2.0614,2.6440
72478,2.0622,2.6577
72479,2.0622,2.6738
72480,2.0622,2.6875
72481,2.0622,2.7206
72482,2.0622,2.7359
72483,2.0622,2.7633
72484,2.0622,2.7560
72485,2.0622,2.7601
72486,2.0606,2.7351
72487,2.0590,2.7069
72488,2.0509,2.6747
72489,2.0485,2.6577
72490,2.0429,2.6190
72491,2.0364,2.6013
72492,2.0356,2.5812
72493,2.0404,2.5973
72494,2.0316,2.5973
72495,2.0348,2.6247
72496,2.0235,2.6432
72497,2.0316,2.6690
72498,2.0324,2.6875
72499,2.0300,2.7085
72500,2.0324,2.7440
72501,2.0429,2.7343
72502,2.0501,2.7069
72503,2.0549,2.7021
72504,2.0606,2.6811
72505,2.0622,2.6569
72506,2.0598,2.6303
72507,2.0590,2.6062
72508,2.0558,2.5788
72509,2.0533,2.5707
72510,2.0549,2.5796
72511,2.0517,2.5916
72512,2.0549,2.6118
72513,2.0501,2.6344
72514,2.0541,2.6585
72515,2.0509,2.6875
72516,2.0525,2.6964
72517,2.0606,2.7166
72518,2.0622,2.7206
72519,2.0622,2.7158
72520,2.0815,2.6972
72521,2.0856,2.6714
72522,2.0622,2.6513
72523,2.0622,2.6199
72524,2.0622,2.5957
72525,2.0622,2.5715
72526,2.0622,2.5779
72527,2.0622,2.5908
72528,2.0622,2.5973
72529,2.0622,2.6271
72530,2.0622,2.6513
72531,2.0622,2.6690
72532,2.0622,2.6948
72533,2.0622,2.7101
72534,2.0622,2.7303
72535,2.0896,2.7295
72536,2.0912,2.7166
72537,2.0936,2.6948
72538,2.0912,2.6698
72539,2.0904,2.6456
72540,2.0880,2.6150
72541,2.0832,2.5916
72542,2.0622,2.5836
72543,2.0622,2.5916
72544,2.0622,2.5981
72545,2.0622,2.6142
72546,2.0622,2.6376
72547,2.0622,2.6601
72548,2.0622,2.6795
72549,2.0622,2.7029
72550,2.0622,2.7206
72551,2.0622,2.7335
72552,2.0872,2.7335
72553,2.0928,2.7117
72554,2.0944,2.6900
72555,2.0912,2.6674
72556,2.0896,2.6392
72557,2.0848,2.6053
72558,2.0848,2.5933
72559,2.0815,2.5828
72560,2.0622,2.5925
72561,2.0622,2.6005
72562,2.0622,2.6190
72563,2.0622,2.6440
72564,2.0622,2.6690
72565,2.0622,2.6916
72566,2.0622,2.7117
72567,2.0622,2.7319
72568,2.0815,2.7383
72569,2.0912,2.7222
72570,2.0936,2.7077
72571,2.0968,2.6835
72572,2.0944,2.6650
72573,2.0904,2.6336
72574,2.0904,2.6062
73763,2.0485,3.2581
73764,2.0477,3.2549
73765,2.0469,3.2379
73765,2.0469,3.2379
73765,2.0469,3.2379
73765,2.0469,3.2379
73765,2.0469,3.2379
73766,2.0429,3.2363
73767,2.0396,3.2291
73768,2.0380,3.2234
73769,2.0404,3.2259
73770,2.0300,3.2218
73771,2.0324,3.2234
73772,2.0292,3.2307
73773,2.0267,3.2363
73774,2.0251,3.2492
73775,2.0251,3.2468
73776,2.0235,3.2412
73777,2.0227,3.2444
73778,2.0195,3.2307
73779,2.0195,3.2218
73780,2.0155,3.2097
73781,2.0138,3.2162
73782,2.0114,3.1936
73783,2.0098,3.1807
73784,1.9993,3.1727
73785,2.0010,3.1670
73786,1.9993,3.1598
73787,1.9993,3.1485
73788,2.0098,3.1485
73789,1.9977,3.1695
73790,1.9961,3.1485
73791,1.9913,3.1211
73792,1.9913,3.1541
73793,1.9873,3.1388
73794,1.9848,3.1404
73795,1.9881,3.1308
73796,1.9784,3.1219
73797,1.9832,3.1098
73798,1.9776,3.1018
73799,1.9744,3.0961
73800,1.9736,3.0953
73801,1.9727,3.0703
73802,1.9727,3.0695
73803,1.9687,3.0558
73804,1.9671,3.0582
73805,1.9631,3.0510
73806,1.9599,3.0429
73807,1.9639,3.0308
73808,1.9582,3.0486
73809,1.9574,3.0300
73810,1.9542,3.0252
73811,1.9510,3.0034
73812,1.9510,3.0147
73813,1.9486,3.0075
73814,1.9478,3.0018
73815,1.9470,2.9865
73816,1.9462,2.9922
73817,1.9405,2.9857
73818,1.9381,2.9801
73819,1.9381,2.9543
73820,1.9349,2.9704
73821,1.9333,2.9720
73822,1.9365,2.9551
73823,1.9300,2.9583
73824,1.9268,2.9519
73825,1.9292,2.9519
73826,1.9268,2.9406
73827,1.9220,2.9454
73828,1.9244,2.9680
73829,1.9212,2.9317
73830,1.9171,2.9229
73831,1.9212,2.9245
73832,1.9212,2.9196
73833,1.9163,2.9148
73834,1.9171,2.9084
73835,1.9155,2.9100
73836,1.9131,2.8810
73837,1.9107,2.8793
73838,1.9123,2.8753
73839,1.9123,2.8874
73840,1.9091,2.8995
73841,1.9091,2.8874
73842,1.9083,2.8858
73843,1.9042,2.8858
73844,1.9002,2.8810
73845,1.9018,2.8753
73846,1.8994,2.8793
73847,1.8994,2.8793
73848,1.9002,2.8640
73849,1.8954,2.8721
73850,1.8970,2.8640
73851,1.8962,2.8713
73852,1.8978,2.8648
73853,1.8954,2.8568
73854,1.8946,2.8600
73855,1.8954,2.8431
73856,1.8954,2.8527
73857,1.8954,2.8713
73858,1.8946,2.8503
73859,1.8930,2.8648
73860,1.8873,2.8479
73861,1.8849,2.8237
73862,1.8881,2.8463
73863,1.8865,2.8423
73864,1.8841,2.8382
73865,1.8833,2.8407
73866,1.8857,2.8382
73867,1.8865,2.8495
73868,1.8865,2.8366
73869,1.8833,2.8487
73870,1.8833,2.8141
73871,1.8809,2.8286
73872,1.8825,2.8270
73873,1.8833,2.8262
73874,1.8801,2.8310
73875,1.8785,2.8237
73876,1.8801,2.8245
73877,1.8752,2.8245
73878,1.8768,2.8245
73879,1.8696,2.8181
73880,1.8801,2.8237
73881,1.8785,2.8189
73882,1.8777,2.8286
73883,1.8777,2.8189
73884,1.8785,2.8165
73885,1.8720,2.8157
73886,1.8704,2.8133
73887,1.8712,2.8157
73888,1.8664,2.7891
73889,1.8785,2.7979
73890,1.8680,2.8052
73891,1.8696,2.8133
73892,1.8696,2.8068
73893,1.8696,2.8100
73894,1.8696,2.8060
73895,1.8672,2.8060
73896,1.8720,2.8020
73897,1.8696,2.8004
73898,1.8672,2.7875
73899,1.8696,2.8020
73900,1.8640,2.8020
73901,1.8696,2.7988
73902,1.8688,2.8020
73903,1.8672,2.8028
73904,1.8672,2.7988
73905,1.8656,2.7971
73906,1.8696,2.7988
73907,1.8688,2.7979
73908,1.8664,2.7971
73909,1.8696,2.7955
73910,1.8672,2.7979
73911,1.8688,2.7971
73912,1.8664,2.7931
73913,1.8656,2.7939
73914,1.8656,2.7722
73915,1.8656,2.7979
73916,1.8680,2.7907
73917,1.8688,2.7899
73918,1.8640,2.7931
73919,1.8672,2.7955
73920,1.8591,2.7891
73921,1.8648,2.7971
73922,1.8648,2.7891
73923,1.8672,2.7899
73924,1.8615,2.7842
73925,1.8607,2.7883
73926,1.8656,2.7875
73927,1.8623,2.7907
73928,1.8640,2.7891
73929,1.8632,2.7867
73930,1.8688,2.7955
73931,1.8607,2.7867
73932,1.8599,2.7891
73933,1.8567,2.7875
73934,1.8615,2.7867
73935,1.8591,2.7875
73936,1.8599,2.7842
73937,1.8607,2.7867
73938,1.8575,2.7859
73939,1.8583,2.7834
73940,1.8599,2.7826
73941,1.8656,2.7826
73942,1.8607,2.7826
73943,1.8648,2.7842
73944,1.8575,2.7834
73945,1.8591,2.7842
73946,1.8575,2.7649
73947,1.8607,2.7851
73948,1.8575,2.7826
73949,1.8575,2.7762
73950,1.8607,2.7778
73951,1.8575,2.7826
73952,1.8559,2.7802
73953,1.8543,2.7810
73954,1.8575,2.7826
73955,1.8575,2.7826
73956,1.8559,2.7770
73957,1.8599,2.7810
73958,1.8583,2.7842
73959,1.8575,2.7762
73960,1.8559,2.7746
73961,1.8591,2.7778
73962,1.8567,2.7842
73963,1.8575,2.7778
73964,1.8575,2.7802
73965,1.8551,2.7746
73966,1.8551,2.7746
73967,1.8527,2.7770
73968,1.8543,2.7842
73969,1.8559,2.7738
73970,1.8559,2.7746
73971,1.8567,2.7730
73972,1.8567,2.7754
73973,1.8543,2.7770
73974,1.8575,2.7762
73975,1.8551,2.7802
73976,1.8551,2.7770
73977,1.8543,2.7778
73978,1.8551,2.7762
73979,1.8519,2.7867
73980,1.8519,2.7794
73981,1.8543,2.7778
73982,1.8495,2.7730
73983,1.8527,2.7722
73984,1.8551,2.7730
73985,1.8535,2.7778
73986,1.8567,2.7746
73987,1.8511,2.7762
73988,1.8519,2.7722
73989,1.8543,2.7738
73990,1.8543,2.7689
73991,1.8543,2.7730
73992,1.8543,2.7738
73993,1.8551,2.7722
73994,1.8519,2.7730
73995,1.8551,2.7746
73996,1.8543,2.7762
73997,1.8535,2.7770
73998,1.8527,2.7746
73999,1.8543,2.7722
74000,1.8615,2.7722
74001,1.8438,2.7722
74002,1.8519,2.7722
74003,1.8535,2.7722
74004,1.8535,2.7714
74005,1.8527,2.7722
74006,1.8559,2.7746
74007,1.8519,2.7738
74008,1.8543,2.7714
74009,1.8511,2.7714
74010,1.8486,2.7738
74011,1.8527,2.7762
74012,1.8486,2.7722
74013,1.8495,2.7722
74014,1.8591,2.7722
74015,1.8527,2.7738
74016,1.8535,2.7722
74017,1.8543,2.7714
74018,1.8511,2.7754
74019,1.8495,2.7722
74020,1.8495,2.7730
74021,1.8527,2.7722
74022,1.8519,2.7705
74023,1.8527,2.7689
74024,1.8478,2.7722
74025,1.8527,2.7722
74026,1.8495,2.7722
74027,1.8519,2.7681
74028,1.8511,2.7705
74029,1.8519,2.7722
74030,1.8495,2.7762
74031,1.8486,2.7697
74032,1.8519,2.7754
74033,1.8551,2.7665
74034,1.8511,2.7730
74035,1.8495,2.7722
74036,1.8511,2.7714
74037,1.8527,2.7681
74038,1.8535,2.7722
74039,1.8519,2.7738
74040,1.8543,2.7722
74041,1.8519,2.7722
74042,1.8527,2.7762
74043,1.8503,2.7697
74044,1.8551,2.7722
74045,1.8495,2.7722
74046,1.8527,2.7722
74047,1.8543,2.7722
74048,1.8519,2.7697
74049,1.8511,2.7722
74050,1.8478,2.7770
74051,1.8503,2.7714
74052,1.8519,2.7722
74053,1.8527,2.7649
74054,1.8543,2.7722
74055,1.8527,2.7681
74056,1.8527,2.7649
74057,1.8527,2.7673
74058,1.8551,2.7754
74059,1.8559,2.7778
74060,1.8551,2.7681
74061,1.8519,2.7714
74062,1.8495,2.7609
74063,1.8478,2.7714
74064,1.8486,2.7738
74065,1.8478,2.7722
74066,1.8551,2.7705
74067,1.8575,2.7722
74068,1.8519,2.7722
74069,1.8519,2.7714
74070,1.8527,2.7681
74071,1.8527,2.7697
74072,1.8527,2.7681
74073,1.8478,2.7705
74074,1.8519,2.7649
74075,1.8543,2.7714
74076,1.8495,2.7697
74077,1.8559,2.7681
74078,1.8495,2.7673
74079,1.8527,2.7705
74080,1.8527,2.7714
74081,1.8559,2.7714
74082,1.8535,2.7722
74083,1.8535,2.7802
74084,1.8478,2.7705
74085,1.8519,2.7722
74086,1.8495,2.7714
74087,1.8809,2.7697
74088,1.8535,2.7705
74089,1.8495,2.7697
74090,1.8551,2.7722
74091,1.8527,2.7722
74092,1.8470,2.7730
74093,1.8543,2.7689
74094,1.8495,2.7697
74095,1.8527,2.7722
74096,1.8527,2.7722
74097,1.8519,2.7722
74098,1.8535,2.7689
74099,1.8519,2.7714
74100,1.8486,2.7722
74101,1.8511,2.7722
74102,1.8519,2.7705
74103,1.8551,2.7722
74104,1.8511,2.7705
74105,1.8478,2.7673
74106,1.8454,2.7705
74107,1.8438,2.7722
74108,1.8543,2.7697
74109,1.8575,2.7714
74110,1.8527,2.7697
74111,1.8478,2.7722
74112,1.8478,2.7746
74113,1.8551,2.7681
74114,1.8575,2.7722
74115,1.8495,2.7722
74116,1.8519,2.7770
74117,1.8486,2.7681
74118,1.8559,2.7722
74119,1.8478,2.7705
74120,1.8527,2.7697
74121,1.8478,2.7714
74122,1.8551,2.7649
74123,1.8511,2.7705
74124,1.8535,2.7705
74125,1.8495,2.7722
74126,1.8559,2.7746
74127,1.8519,2.7705
74128,1.8543,2.7673
74129,1.8478,2.7714
74130,1.8495,2.7697
74131,1.8519,2.7689
74132,1.8511,2.7681
74133,1.8519,2.7714
74134,1.8486,2.7689
74135,1.8551,2.7705
74136,1.8462,2.7722
74137,1.8495,2.7689
74138,1.8527,2.7681
74139,1.8511,2.7689
74140,1.8527,2.7714
74141,1.8511,2.7714
74142,1.8527,2.7722
74143,1.8495,2.7697
74144,1.8478,2.7722
74145,1.8519,2.7714
74146,1.8527,2.7762
74147,1.8519,2.7705
74148,1.8277,2.7722
74149,1.8511,2.7673
74150,1.8519,2.7697
74151,1.8519,2.7722
74152,1.8511,2.7697
74153,1.8462,2.7705
74154,1.8478,2.7722
74155,1.8438,2.7673
74156,1.8462,2.7722
74157,1.8527,2.7714
74158,1.8486,2.7722
74159,1.8495,2.7722
74160,1.8503,2.7722
74161,1.8543,2.7681
74162,1.8486,2.7714
74163,1.8486,2.7714
74164,1.8446,2.7714
74165,1.8446,2.7681
74166,1.8519,2.7714
74167,1.8495,2.7714
74168,1.8527,2.7714
74169,1.8664,2.7714
74170,1.8454,2.7673
74171,1.8551,2.7673
74172,1.8495,2.7697
74173,1.8511,2.7689
74174,1.8543,2.7714
74175,1.8527,2.7697
74176,1.8519,2.7738
74177,1.8495,2.7714
74178,1.8543,2.7697
74179,1.8583,2.7722
74180,1.8543,2.7722
74181,1.8495,2.7681
74182,1.8607,2.7722
74183,1.8495,2.7681
74184,1.8527,2.7705
74185,1.8527,2.7722
74186,1.8470,2.7633
74187,1.8438,2.7705
74188,1.8519,2.7689
74189,1.8583,2.7681
74190,1.8406,2.7681
74191,1.8527,2.7673
74192,1.8454,2.7714
74193,1.8511,2.7665
74194,1.8583,2.7681
74195,1.8519,2.7673
74196,1.8495,2.7705
74197,1.8519,2.7649
74198,1.8398,2.7633
74199,1.8511,2.7697
74200,1.8559,2.7722
74201,1.8478,2.7689
74202,1.8511,2.7722
74203,1.8511,2.7714
74204,1.8519,2.7714
74205,1.8478,2.7697
74206,1.8559,2.7681
74207,1.8543,2.7673
74208,1.8486,2.7649
74209,1.8486,2.7681
74210,1.8519,2.7714
74211,1.8495,2.7714
74212,1.8454,2.7689
74213,1.8511,2.7697
74214,1.8495,2.7633
74215,1.8454,2.7697
74216,1.8462,2.7722
74217,1.8495,2.7714
74218,1.8559,2.7722
74219,1.8486,2.7681
74220,1.8486,2.7697
74221,1.8486,2.7722
74222,1.8696,2.7730
74223,1.8486,2.7673
74224,1.8462,2.7722
74225,1.8527,2.7681
74226,1.8495,2.7697
74227,1.8486,2.7705
74228,1.8486,2.7714
74229,1.8511,2.7714
74230,1.8511,2.7697
74231,1.8535,2.7665
74232,1.8495,2.7697
74233,1.8478,2.7705
74234,1.8486,2.7697
74235,1.8454,2.7705
74236,1.8648,2.7641
74237,1.8495,2.7714
74238,1.8575,2.7722
74239,1.8527,2.7722
74240,1.8503,2.7697
74241,1.8486,2.7697
74242,1.8559,2.7681
74243,1.8527,2.7722
74244,1.8527,2.7673
74245,1.8511,2.7641
74246,1.8527,2.7681
74247,1.8511,2.7697
74248,1.8567,2.7673
74249,1.8495,2.7633
74250,1.8495,2.7649
74251,1.8511,2.7681
74252,1.8543,2.7673
74253,1.8486,2.7746
74254,1.8519,2.7714
74255,1.8486,2.7657
74256,1.8486,2.7705
74257,1.8495,2.7681
74258,1.8511,2.7681
74259,1.8486,2.7681
74260,1.8519,2.7673
74261,1.8519,2.7681
74262,1.8527,2.7673
74263,1.8462,2.7714
74264,1.8462,2.7681
74265,1.8527,2.7722
74266,1.8527,2.7738
74267,1.8519,2.7705
74268,1.8495,2.7641
74269,1.8527,2.7649
74270,1.8486,2.7681
74271,1.8519,2.7681
74272,1.8495,2.7722
74273,1.8478,2.7464
74274,1.8535,2.7649
74275,1.8495,2.7673
74276,1.8486,2.7714
74277,1.8495,2.7665
74278,1.8478,2.7722
74279,1.8519,2.7883
74280,1.8495,2.7681
74281,1.8486,2.7705
74282,1.8535,2.7722
74283,1.8478,2.7722
74284,1.8462,2.7697
74285,1.8519,2.7673
74286,1.8495,2.7697
74287,1.8511,2.7689
74288,1.8495,2.7697
74289,1.8495,2.7722
74290,1.8486,2.7705
74291,1.8495,2.7722
74292,1.8470,2.7472
74293,1.8495,2.7681
74294,1.8511,2.7697
74295,1.8495,2.7625
74296,1.8478,2.7722
74297,1.8478,2.7649
74298,1.8511,2.7697
74299,1.8511,2.7673
74300,1.8486,2.7697
74301,1.8454,2.7722
74302,1.8486,2.7689
74303,1.8470,2.7697
74304,1.8438,2.7697
74305,1.8495,2.7681
74306,1.8495,2.7705
74307,1.8478,2.7722
74308,1.8559,2.7714
74309,1.8478,2.7697
74310,1.8495,2.7681
74311,1.8462,2.7456
74312,1.8511,2.7697
74313,1.8486,2.7705
74314,1.8527,2.7673
74315,1.8470,2.7714
74316,1.8486,2.7714
74317,1.8495,2.7633
74318,1.8438,2.7649
74319,1.8511,2.7722
74320,1.8511,2.7617
74321,1.8495,2.7722
74322,1.8511,2.7641
74323,1.8503,2.7665
74324,1.8495,2.7705
74325,1.8519,2.7722
74326,1.8486,2.7681
74327,1.8495,2.7697
74328,1.8446,2.7665
74329,1.8478,2.7665
74330,1.8535,2.7359
74331,1.8486,2.7714
74332,1.8543,2.7681
74333,1.8446,2.7714
74334,1.8486,2.7673
74335,1.8478,2.7697
74336,1.8478,2.7673
74337,1.8454,2.7681
74338,1.8495,2.7705
74339,1.8495,2.7697
74340,1.8486,2.7665
74341,1.8486,2.7649
74342,1.8462,2.7802
74343,1.8462,2.7488
74344,1.8519,2.7472
74345,1.8495,2.7689
74346,1.8486,2.7633
74347,1.8478,2.7625
74348,1.8478,2.7617
74349,1.8486,2.7673
74350,1.8438,2.7802
74351,1.8495,2.7641
74352,1.8470,2.7810
74353,1.8527,2.7633
74354,1.8511,2.7681
74355,1.8438,2.7633
74356,1.8478,2.7714
74357,1.8559,2.7681
74358,1.8478,2.7681
74359,1.8462,2.7673
74360,1.8527,2.7673
74361,1.8495,2.7722
74362,1.8470,2.7714
74363,1.8495,2.7689
74364,1.8519,2.7697
74365,1.8478,2.7697
74366,1.8503,2.7705
74367,1.8495,2.7681
74368,1.8438,2.7722
74369,1.8527,2.7714
74370,1.8495,2.7649
74371,1.8527,2.7705
74372,1.8462,2.7705
74373,1.8478,2.7714
74374,1.8462,2.7705
74375,1.8495,2.7689
74376,1.8495,2.7641
74377,1.8511,2.7673
74378,1.8543,2.7722
74379,1.8462,2.7697
74380,1.8519,2.7673
74381,1.8478,2.7705
74382,1.8495,2.7722
74383,1.8446,2.7697
74384,1.8486,2.7681
74385,1.8495,2.7705
74386,1.8519,2.7722
74387,1.8511,2.7681
74388,1.8486,2.7746
74389,1.8478,2.7681
74390,1.8511,2.7673
74391,1.8462,2.7689
74392,1.8462,2.7689
74393,1.8511,2.7689
74394,1.8503,2.7738
74395,1.8478,2.7673
74396,1.8495,2.7714
74397,1.8478,2.7681
74398,1.8462,2.7818
74399,1.8462,2.7697
74400,1.8511,2.7649
74401,1.8446,2.7665
74402,1.8462,2.7641
74403,1.8527,2.7714
74404,1.8478,2.7681
74405,1.8519,2.7705
74406,1.8495,2.7681
74407,1.8486,2.7697
74408,1.8495,2.7585
74409,1.8511,2.7697
74410,1.8527,2.7722
74411,1.8495,2.7681
74412,1.8527,2.7641
74413,1.8511,2.7665
74414,1.8462,2.7617
74415,1.8527,2.7689
74416,1.8495,2.7714
74417,1.8478,2.7722
74418,1.8486,2.7681
74419,1.8486,2.7722
74420,1.8462,2.7689
74421,1.8519,2.7681
74422,1.8519,2.7601
74423,1.8462,2.7778
74424,1.8519,2.7601
74425,1.8478,2.7609
74426,1.8478,2.7705
74427,1.8478,2.7705
74428,1.8454,2.7802
74429,1.8486,2.7601
74430,1.8503,2.7665
74431,1.8535,2.7705
74432,1.8478,2.7705
74433,1.8478,2.7617
74434,1.8495,2.7681
74435,1.8495,2.7673
74436,1.8495,2.7641
74437,1.8519,2.7705
74438,1.8495,2.7697
74439,1.8519,2.7705
74440,1.8535,2.7673
74441,1.8503,2.7714
74442,1.8495,2.7705
74443,1.8495,2.7681
74444,1.8511,2.7730
74445,1.8486,2.7649
74446,1.8486,2.7504
74447,1.8527,2.7665
74448,1.8543,2.7778
74449,1.8462,2.7673
74450,1.8495,2.7714
74451,1.8470,2.7673
74452,1.8486,2.7665
74453,1.8527,2.7681
74454,1.8527,2.7754
74455,1.8495,2.7722
74456,1.8543,2.7746
74457,1.8495,2.7714
74458,1.8495,2.7770
74459,1.8511,2.7778
74460,1.8527,2.7826
74461,1.8519,2.7842
74462,1.8446,2.7842
74463,1.8519,2.7834
74464,1.8519,2.7955
74465,1.8527,2.7834
74466,1.8486,2.7778
74467,1.8519,2.7810
74468,1.8551,2.7826
74469,1.8519,2.7834
74470,1.8519,2.7810
74471,1.8519,2.7859
74472,1.8527,2.7842
74473,1.8543,2.7931
74474,1.8511,2.7996
74475,1.8543,2.8108
74476,1.8567,2.8133
74477,1.8543,2.8125
74478,1.8607,2.8165
74479,1.8559,2.8157
74480,1.8567,2.8133
74481,1.8527,2.8108
74482,1.8575,2.8157
74483,1.8575,2.8060
74484,1.8543,2.8092
74485,1.8559,2.8092
74486,1.8567,2.8237
74487,1.8567,2.8108
74488,1.8575,2.8221
74489,1.8567,2.8270
74490,1.8656,2.8366
74491,1.8583,2.8495
74492,1.8607,2.8503
74493,1.8591,2.8592
74494,1.8599,2.8552
74495,1.8607,2.8552
74496,1.8623,2.8544
74497,1.8648,2.8624
74498,1.8615,2.8544
74499,1.8656,2.8536
74500,1.8607,2.8503
74501,1.8648,2.8511
74502,1.8680,2.8503
74503,1.8648,2.8495
74504,1.8648,2.8536
74505,1.8696,2.8608
74506,1.8640,2.8681
74507,1.8688,2.8785
74508,1.8688,2.8874
74509,1.8696,2.9011
74510,1.8688,2.9003
74511,1.8712,2.9051
74512,1.8704,2.9043
74513,1.8704,2.9011
74514,1.8720,2.9011
74515,1.8696,2.9011
74516,1.8712,2.9011
74517,1.8849,2.8874
74518,1.8744,2.8874
74519,1.8768,2.8874
74520,1.8712,2.9011
74521,1.8785,2.9003
74522,1.8752,2.9148
74523,1.8777,2.9221
74524,1.8777,2.9261
74525,1.8752,2.9293
74526,1.8720,2.9422
74527,1.8801,2.9478
74528,1.8777,2.9398
74529,1.8833,2.9503
74530,1.8833,2.9406
74531,1.8801,2.9406
74532,1.8833,2.9349
74533,1.8833,2.9406
74534,1.8841,2.9341
74535,1.8849,2.9293
74536,1.8841,2.9301
74537,1.8905,2.9358
74538,1.8833,2.9406
74539,1.8897,2.9511
74540,1.8865,2.9486
74541,1.8865,2.9712
74542,1.8873,2.9777
74543,1.8954,2.9825
74544,1.8938,2.9736
74545,1.8938,2.9849
74546,1.8930,2.9785
74547,1.8938,2.9736
74548,1.8938,2.9728
74549,1.8938,2.9785
74550,1.8938,2.9720
74551,1.8954,2.9672
74552,1.8954,2.9607
74553,1.8849,2.9656
74554,1.8954,2.9744
74555,1.8938,2.9817
74556,1.8930,2.9889
74557,1.8970,2.9922
74558,1.8954,3.0042
74559,1.9002,3.0083
74560,1.8978,3.0131
74561,1.8954,3.0147
74562,1.9042,3.0075
74563,1.9026,3.0042
74564,1.8978,3.0026
74565,1.9026,2.9954
74566,1.9026,2.9994
74567,1.9051,2.9897
74568,1.9002,2.9914
74569,1.9034,2.9914
74570,1.9010,2.9970
74571,1.9034,3.0042
74572,1.9026,3.0123
74573,1.9026,3.0188
74574,1.9059,3.0284
74575,1.9083,3.0341
74576,1.9107,3.0341
74577,1.9123,3.0405
74578,1.9099,3.0325
74579,1.9115,3.0333
74580,1.9131,3.0276
74581,1.9171,3.0292
74582,1.9155,3.0252
74583,1.9131,3.0228
74584,1.9179,3.0228
74585,1.9139,3.0252
74586,1.9196,3.0196
74587,1.9204,3.0292
74588,1.9171,3.0365
74589,1.9212,3.0421
74590,1.9188,3.0421
74591,1.9212,3.0534
74592,1.9196,3.0607
74593,1.9204,3.0607
74594,1.9228,3.0615
74595,1.9220,3.0655
74596,1.9228,3.0558
74597,1.9228,3.0558
74598,1.9252,3.0470
74599,1.9212,3.0518
74600,1.9252,3.0453
74601,1.9220,3.0421
74602,1.9220,3.0437
74603,1.9236,3.0470
74604,1.9228,3.0518
74605,1.9228,3.0615
74606,1.9252,3.0768
74607,1.9268,3.0800
74608,1.9260,3.0873
74609,1.9325,3.0832
74610,1.9357,3.0816
74611,1.9333,3.0864
74612,1.9333,3.0792
74613,1.9325,3.0816
74614,1.9349,3.0695
74615,1.9349,3.0711
74616,1.9333,3.0703
74617,1.9365,3.0647
74618,1.9325,3.0607
74619,1.9397,3.0679
74620,1.9365,3.0727
74621,1.9357,3.0808
74622,1.9333,3.0873
74623,1.9349,3.0953
74624,1.9325,3.0953
74625,1.9389,3.1001
74626,1.9462,3.1066
74627,1.9470,3.1074
74628,1.9470,3.1163
74629,1.9486,3.1042
74630,1.9542,3.1026
74631,1.9494,3.0969
74632,1.9478,3.0937
74633,1.9510,3.0881
74634,1.9470,3.0905
74635,1.9470,3.0889
74636,1.9478,3.0937
74637,1.9397,3.0937
74638,1.9470,3.1074
74639,1.9655,3.1130
74640,1.9486,3.1163
74641,1.9542,3.1219
74642,1.9486,3.1292
74643,1.9550,3.1275
74644,1.9590,3.1316
74645,1.9574,3.1259
74646,1.9599,3.1243
74647,1.9590,3.1211
74648,1.9558,3.1163
74649,1.9566,3.1082
74650,1.9526,3.1122
74651,1.9679,3.1122
74652,1.9599,3.1130
74653,1.9566,3.1171
74654,1.9582,3.1251
74655,1.9550,3.1292
74656,1.9494,3.1421
74657,1.9776,3.1477
74658,1.9719,3.1453
74659,1.9639,3.1549
74660,1.9679,3.1541
74661,1.9687,3.1501
74662,1.9695,3.1396
74663,1.9727,3.1404
74664,1.9711,3.1380
74665,1.9752,3.1388
74666,1.9727,3.1340
74667,1.9687,3.1348
74668,1.9727,3.1332
74669,1.9655,3.1300
74670,1.9719,3.1380
74671,1.9736,3.1517
74672,1.9695,3.1485
74673,1.9711,3.1590
74674,1.9873,3.1662
74675,1.9752,3.1646
74676,1.9727,3.1711
74677,1.9784,3.1727
74678,1.9864,3.1614
74679,1.9824,3.1630
74680,1.9832,3.1678
74681,1.9800,3.1638
74682,1.9881,3.1541
74683,1.9816,3.1590
74684,1.9808,3.1501
74685,1.9800,3.1590
74686,1.9768,3.1574
74687,1.9776,3.1646
74688,1.9639,3.1735
74689,1.9752,3.1815
74690,1.9727,3.1848
74691,1.9808,3.2033
74692,1.9727,3.1952
74693,1.9873,3.1936
74694,1.9897,3.1960
74695,1.9864,3.1952
74696,1.9856,3.1936
74697,1.9897,3.1896
74698,1.9937,3.1815
74699,1.9897,3.1815
74700,1.9744,3.1743
74701,1.9913,3.1775
74702,1.9864,3.1832
74703,1.9848,3.1848
74704,1.9832,3.1896
74705,1.9873,3.1977
74706,1.9881,3.2017
74707,1.9969,3.2017
74708,1.9913,3.2105
74709,1.9945,3.2202
74710,1.9985,3.2218
74711,1.9969,3.2186
74712,2.0090,3.2194
74713,1.9985,3.2097
74714,1.9969,3.2162
74715,2.0001,3.2057
74716,1.9808,3.2025
74717,1.9937,3.1920
74718,1.9961,3.1977
74719,1.9953,3.2081
74720,1.9897,3.2105
74721,1.9937,3.2162
74722,1.9961,3.2234
74723,1.9961,3.2210
74724,1.9985,3.2226
74725,1.9985,3.2339
74726,2.0042,3.2291
74727,2.0042,3.2291
74728,2.0058,3.2307
74729,2.0082,3.2363
74730,2.0114,3.2347
74731,2.0082,3.2541
74732,2.0171,3.2283
74733,2.0090,3.2259
74734,2.0090,3.2339
74735,2.0106,3.2734
74736,2.0058,3.2396
74737,2.0090,3.2468
74738,2.0122,3.2565
74739,2.0114,3.2629
74740,2.0147,3.2533
74741,2.0227,3.2283
74742,2.0461,3.2146
74743,2.0380,3.2492
74744,2.0396,3.2105
74745,2.0477,3.2105
74746,2.0445,3.2041
74747,2.0485,3.1985
74748,2.0421,3.1993
74749,2.0445,3.2001
74750,2.0477,3.2017
74751,2.0421,3.2057
74752,2.0493,3.2122
74753,2.0453,3.2500
74754,2.0461,3.2363
74755,2.0477,3.2315
74756,2.0429,3.2516
74757,2.0485,3.2436
74758,2.0549,3.2460
74759,2.0622,3.2436
74760,2.0622,3.2500
74761,2.0832,3.2492
74762,2.0622,3.2476
74763,2.0864,3.2436
74764,2.0815,3.2541
74765,2.0864,3.2476
74766,2.0888,3.2484
74767,2.0840,3.2549
74768,2.0848,3.2468
74769,2.0864,3.2404
74770,2.0622,3.2710
74771,2.0807,3.2807
74772,2.0622,3.2863
74773,2.0622,3.2927
74774,2.0848,3.2887
74775,2.0977,3.2879
74776,2.1009,3.2960
74777,2.1041,3.2976
74778,2.1105,3.3000
74779,2.1089,3.2879
74780,2.1138,3.2919
74781,2.1089,3.3000
74782,2.1097,3.2879
74783,2.1065,3.2960
74784,2.1073,3.2895
74785,2.1057,3.3000
74786,2.1025,3.3000
74787,2.1033,3.3000
74788,2.1017,3.3000
74789,2.1001,3.3000
74790,2.1017,3.3000
74791,2.1065,3.3000
74792,2.1138,3.3000
74793,2.1234,3.3000
74794,2.1267,3.3000
74795,2.1275,3.3000
74796,2.1275,3.3000
74797,2.1299,3.3000
74798,2.1275,3.2952
74799,2.1275,3.3000
74800,2.1267,3.3000
74801,2.1291,3.3000
74802,2.1194,3.3000
74803,2.1202,3.3000
74804,2.1202,3.3000
74805,2.1162,3.3000
74806,2.1154,3.3000
74807,2.1186,3.3000
74808,2.1251,3.3000
74809,2.1323,3.3000
74810,2.1363,3.3000
74811,2.1460,3.3000
74812,2.1428,3.3000
74813,2.1420,3.3000
74814,2.1444,3.3000
74815,2.1428,3.3000
74816,2.1404,3.3000
74817,2.1412,3.3000
74818,2.1388,3.3000
74819,2.1323,3.3000
74820,2.1347,3.3000
74821,2.1275,3.3000
74822,2.1275,3.3000
74823,2.1299,3.3000
74824,2.1347,3.3000
74825,2.1420,3.3000
74826,2.1492,3.3000
74827,2.1533,3.3000
74828,2.1581,3.3000
74829,2.1533,3.3000
74830,2.1516,3.3000
74831,2.1533,3.3000
74832,2.1533,3.3000
74833,2.1525,3.3000
74834,2.1525,3.3000
74835,2.1460,3.3000
74836,2.1452,3.3000
74837,2.1428,3.3000
74838,2.1412,3.3000
74839,2.1396,3.3000
74840,2.1347,3.3000
74841,2.1388,3.3000
74842,2.1323,3.3000
74843,2.1379,3.3000
74844,2.1355,3.3000
74845,2.1315,3.3000
74846,2.1299,3.3000
74847,2.1275,3.3000
74848,2.1234,3.3000
74849,2.1267,3.3000
74850,2.1138,3.3000
74851,2.1122,3.3000
74852,2.1105,3.3000
74853,2.1073,3.3000
74854,2.1017,3.3000
74855,2.1017,3.3000
74856,2.1017,3.3000
74857,2.1025,3.3000
74858,2.1097,3.3000
74859,2.1202,3.3000
74860,2.1234,3.3000
74861,2.1283,3.3000
74862,2.1315,3.3000
74863,2.1299,3.3000
74864,2.1323,3.3000
74865,2.1331,3.3000
74866,2.1363,3.3000
74867,2.1291,3.3000
74868,2.1259,3.3000
74869,2.1251,3.3000
74870,2.1259,3.3000
74871,2.1186,3.3000
74872,2.1162,3.3000
74873,2.1202,3.3000
74874,2.1251,3.3000
74875,2.1275,3.3000
74876,2.1347,3.3000
74877,2.1363,3.3000
74878,2.1331,3.3000
74879,2.1355,3.3000
74880,2.1355,3.3000
74881,2.1371,3.3000
74882,2.1315,3.3000
74883,2.1323,3.3000
74884,2.1299,3.3000
74885,2.1275,3.3000
74886,2.1259,3.3000
74887,2.1251,3.3000
74888,2.1234,3.3000
74889,2.1218,3.3000
74890,2.1218,3.3000
74891,2.1218,3.3000
74892,2.1226,3.3000
74893,2.1251,3.3000
74894,2.1242,3.3000
74895,2.1251,3.3000
74896,2.1218,3.3000
74897,2.1202,3.3000
74898,2.1218,3.3000
74899,2.1170,3.3000
74900,2.1138,3.3000
74901,2.1105,3.3000
74902,2.1146,3.3000
74903,2.1097,3.3000
74904,2.1025,3.3000
74905,2.1017,3.3000
74906,2.1049,3.3000
74907,2.1033,3.3000
74908,2.1017,3.3000
74909,2.1017,3.3000
74910,2.1097,3.3000
74911,2.1065,3.3000
74912,2.1017,3.3000
74913,2.1025,3.3000
74914,2.1009,3.3000
74915,2.1009,3.3000
74916,2.0985,3.3000
74917,2.0944,3.3000
74918,2.0936,3.3000
74919,2.0896,3.3000
74920,2.0888,3.3000
74921,2.0872,3.3000
74922,2.0622,3.3000
74923,2.0848,3.3000
74924,2.0872,3.3000
74925,2.0840,3.3000
74926,2.0815,3.3000
74927,2.0880,3.3000
74928,2.0872,3.3000
74929,2.0815,3.3000
74930,2.0807,3.3000
74931,2.0622,3.3000
74932,2.0622,3.3000
74933,2.0622,3.3000
74934,2.0622,3.3000
74935,2.0622,3.3000
74936,2.0622,3.3000
74937,2.0622,3.3000
74938,2.0614,3.3000
74939,2.0622,3.3000
74940,2.0622,3.3000
74941,2.0622,3.3000
74942,2.0582,3.3000
74943,2.0590,3.3000
74944,2.0622,3.2927
74945,2.0541,3.2847
74946,2.0558,3.2895
74947,2.0509,3.2879
74948,2.0525,3.2774
74949,2.0501,3.2726
74950,2.0501,3.2863
74951,2.0445,3.2799
74952,2.0445,3.2839
74953,2.0429,3.2871
74954,2.0445,3.2919
74955,2.0412,3.3000
74956,2.0396,3.3000
74957,2.0429,3.2670
74958,2.0501,3.2363
74959,2.0574,3.2210
74960,2.0622,3.2130
74961,2.0622,3.2057
74962,2.0622,3.1968
74963,2.0622,3.1944
74964,2.0622,3.2105
74965,2.0622,3.1960
74966,2.0622,3.1985
74967,2.0622,3.2017
74968,2.0622,3.2105
74969,2.0622,3.2162
74970,2.0622,3.2355
74971,2.0606,3.2355
74972,2.0622,3.2516
74973,2.0622,3.2549
74974,2.0622,3.2396
74975,2.0872,3.2130
74976,2.0928,3.2186
74977,2.0993,3.2130
74978,2.1017,3.2154
74979,2.1009,3.2105
74980,2.1049,3.2194
74981,2.1017,3.2122
74982,2.1049,3.2178
74983,2.1009,3.2251
74984,2.1033,3.2323
74985,2.1001,3.2363
74986,2.0968,3.2629
74987,2.1017,3.2484
74988,2.0977,3.2670
74989,2.0968,3.2758
74990,2.1041,3.2750
74991,2.1073,3.2508
74992,2.1146,3.2549
74993,2.1234,3.2436
74994,2.1275,3.2533
74995,2.1275,3.2516
74996,2.1275,3.2452
74997,2.1307,3.2565
74998,2.1331,3.2420
74999,2.1331,3.2637
75000,2.1275,3.2605
75001,2.1275,3.2702
75002,2.1275,3.2734
75003,2.1234,3.2855
75004,2.1251,3.2903
75005,2.1251,3.3000
75006,2.1251,3.3000
75007,2.1267,3.3000
75008,2.1307,3.2734
75009,2.1396,3.2653
75010,2.1420,3.2629
75011,2.1420,3.2734
75012,2.1452,3.2670
75013,2.1428,3.2702
75014,2.1412,3.2726
75015,2.1388,3.2750
75016,2.1420,3.2782
75017,2.1363,3.2799
75018,2.1355,3.2879
75019,2.1323,3.2984
75020,2.1307,3.3000
75021,2.1275,3.3000
75022,2.1283,3.3000
75023,2.1267,3.3000
75024,2.1355,3.3000
75025,2.1428,3.3000
75026,2.1533,3.2927
75027,2.1516,3.2895
75028,2.1581,3.3000
75029,2.1645,3.2992
75030,2.1621,3.2919
75031,2.1589,3.2968
75032,2.1549,3.2960
75033,2.1533,3.3000
75034,2.1533,3.3000
75035,2.1533,3.3000
75036,2.1508,3.3000
75037,2.1484,3.3000
75038,2.1484,3.3000
75039,2.1484,3.3000
75040,2.1444,3.3000
75041,2.1508,3.3000
75042,2.1605,3.3000
75043,2.1702,3.3000
75044,2.1750,3.3000
75045,2.1750,3.3000
75046,2.1766,3.3000
75047,2.1782,3.3000
75048,2.1750,3.3000
75049,2.1766,3.3000
75050,2.1734,3.3000
75051,2.1686,3.3000
75052,2.1678,3.3000
75053,2.1629,3.3000
75054,2.1621,3.3000
75055,2.1573,3.3000
75056,2.1557,3.3000
75057,2.1637,3.3000
75058,2.1718,3.3000
75059,2.1790,3.3000
75060,2.1799,3.3000
75061,2.1823,3.3000
75062,2.1879,3.3000
75063,2.1871,3.3000
75064,2.1871,3.3000
75065,2.1790,3.3000
75066,2.1815,3.3000
75067,2.1847,3.3000
75068,2.1790,3.3000
75069,2.1718,3.3000
75070,2.1694,3.3000
75071,2.1718,3.3000
75072,2.1670,3.3000
75073,2.1662,3.3000
75074,2.1718,3.3000
75075,2.1750,3.3000
75076,2.1790,3.3000
75077,2.1815,3.3000
75078,2.1799,3.3000
75079,2.1799,3.3000
75080,2.1799,3.3000
75081,2.1815,3.3000
75082,2.1782,3.3000
75083,2.1710,3.3000
75084,2.1613,3.3000
75085,2.1718,3.3000
75086,2.1653,3.3000
75087,2.1662,3.3000
75088,2.1573,3.3000
75089,2.1613,3.3000
75090,2.1629,3.3000
75091,2.1637,3.3000
75092,2.1686,3.3000
75093,2.1758,3.3000
75094,2.1774,3.3000
75095,2.1782,3.3000
75096,2.1790,3.3000
75097,2.1758,3.3000
75098,2.1766,3.3000
75099,2.1742,3.3000
75100,2.1718,3.3000
75101,2.1678,3.3000
75102,2.1637,3.3000
75103,2.1637,3.3000
75104,2.1533,3.3000
75105,2.1573,3.3000
75106,2.1492,3.3000
75107,2.1589,3.3000
75108,2.1645,3.3000
75109,2.1662,3.3000
75110,2.1710,3.3000
75111,2.1670,3.3000
75112,2.1710,3.3000
75113,2.1694,3.3000
75114,2.1686,3.3000
75115,2.1653,3.3000
75116,2.1678,3.3000
75117,2.1637,3.3000
75118,2.1621,3.3000
75119,2.1581,3.3000
75120,2.1541,3.3000
75121,2.1605,3.3000
75122,2.1533,3.3000
75123,2.1476,3.3000
75124,2.1484,3.3000
75125,2.1662,3.3000
75126,2.1299,3.3000
75127,2.1508,3.3000
75128,2.1492,3.3000
75129,2.1444,3.3000
75130,2.1557,3.3000
75131,2.1379,3.3000
75132,2.1202,3.3000
75133,2.1315,3.3000
75134,2.1299,3.3000
75135,2.1275,3.3000
75136,2.1267,3.3000
75137,2.1267,3.3000
75138,2.1218,3.3000
75139,2.1170,3.3000
75140,2.1170,3.3000
75141,2.1170,3.3000
75142,2.1146,3.3000
75143,2.1138,3.2863
75144,2.1097,3.2879
75145,2.1017,3.2750
75146,2.1089,3.2702
75147,2.1017,3.2782
75148,2.1017,3.2766
75149,2.0993,3.2799
75150,2.0622,3.2807
75151,2.0944,3.2919
75152,2.0936,3.2976
75153,2.0848,3.3000
75154,2.0864,3.3000
75155,2.0848,3.3000
75156,2.0872,3.2919
75157,2.0832,3.2516
75158,2.0622,3.2178
75159,2.0622,3.1840
75160,2.0622,3.1711
75161,2.0622,3.1163
75162,2.0622,3.1670
75163,2.0614,3.1759
75164,2.0622,3.1807
75165,2.0622,3.1944
75166,2.0606,3.1993
75167,2.0622,3.2226
75168,2.0558,3.2226
75169,2.0549,3.2299
75170,2.0421,3.2339
75171,2.0614,3.2355
75172,2.0622,3.2194
75173,2.0622,3.1864
75174,2.0622,3.1332
75175,2.0622,3.1001
75176,2.0799,3.0760
75177,2.0622,3.0744
75178,2.0606,3.0760
75179,2.0622,3.0816
75180,2.0622,3.0832
75181,2.0622,3.1001
75182,2.0622,3.0985
75183,2.0622,3.1122
75184,2.0549,3.1219
75185,2.0614,3.1445
75186,2.0622,3.1477
75187,2.0622,3.1606
75188,2.0582,3.1823
75189,2.0622,3.1759
75190,2.0622,3.1574
75191,2.0622,3.1219
75192,2.0815,3.1050
75193,2.0872,3.0969
75194,2.0864,3.1001
75195,2.0864,3.1074
75196,2.0896,3.1058
75197,2.0888,3.1082
75198,2.0840,3.1179
75199,2.0880,3.1251
75200,2.0864,3.1332
75201,2.0840,3.1501
75202,2.0622,3.1614
75203,2.0622,3.1775
75204,2.0815,3.1848
75205,2.0799,3.1936
75206,2.0622,3.1977
75207,2.0848,3.1743
75208,2.0944,3.1332
75209,2.0928,3.1324
75210,2.0977,3.1308
75211,2.0985,3.1300
75212,2.0993,3.1340
75213,2.0936,3.1364
75214,2.0993,3.1388
75215,2.0960,3.1324
75216,2.0920,3.1549
75217,2.0912,3.1590
75218,2.0936,3.1840
75219,2.0872,3.1743
75220,2.0904,3.1968
75221,2.0896,3.2049
75222,2.0622,3.2186
75223,2.0936,3.2105
75224,2.0960,3.1832
75225,2.1001,3.1541
75226,2.1025,3.1469
75227,2.1017,3.1421
75228,2.1057,3.1461
75229,2.1065,3.1501
75230,2.1057,3.1469
75231,2.1033,3.1606
75232,2.1041,3.1606
75233,2.1025,3.1791
75234,2.1017,3.1807
75235,2.1017,3.1936
75236,2.0993,3.2130
75237,2.0993,3.2226
75238,2.0960,3.2291
75239,2.1001,3.2371
75240,2.1017,3.2218
75241,2.1065,3.1856
75242,2.1146,3.1630
75243,2.1114,3.1566
75244,2.1130,3.1614
75245,2.1146,3.1638
75246,2.1130,3.1614
75247,2.1146,3.1735
75248,2.1146,3.1759
75249,2.1105,3.1848
75250,2.1089,3.1920
75251,2.1122,3.2089
75252,2.1073,3.2114
75253,2.1089,3.2323
75254,2.1041,3.2412
75255,2.1033,3.2500
75256,2.1041,3.2508
75257,2.1146,3.2162
75258,2.1154,3.1815
75259,2.1194,3.1703
75260,2.1202,3.1703
75261,2.1234,3.1735
75262,2.1178,3.1727
75263,2.1186,3.1759
75264,2.1138,3.1840
75265,2.1162,3.1872
75266,2.1154,3.1952
75267,2.1122,3.2081
75268,2.1146,3.2114
75269,2.1097,3.2339
75270,2.1114,3.2371
75271,2.1114,3.2541
75272,2.1105,3.2541
75273,2.1138,3.2371
75274,2.1251,3.2178
75275,2.1251,3.1960
75276,2.1283,3.1590
75277,2.1331,3.1743
75278,2.1396,3.1848
75279,2.1355,3.1848
75280,2.1355,3.1856
75281,2.1331,3.1920
75282,2.1331,3.1985
75283,2.1331,3.2105
75284,2.1331,3.2178
75285,2.1275,3.2307
75286,2.1299,3.2379
75287,2.1291,3.2500
75288,2.1275,3.2541
75289,2.1291,3.2541
75290,2.1355,3.2516
75291,2.1331,3.2234
75292,2.1412,3.1985
75293,2.1412,3.1856
75294,2.1420,3.1848
75295,2.1396,3.1832
75296,2.1516,3.2073
75297,2.1388,3.1928
75298,2.1396,3.2194
75299,2.1444,3.2154
75300,2.1355,3.2210
75301,2.1339,3.2363
75302,2.1323,3.2541
75303,2.1299,3.2573
75304,2.1291,3.2662
75305,2.1275,3.2823
75306,2.1299,3.2758
75307,2.1331,3.2500
75308,2.1388,3.2194
75309,2.1388,3.2057
75310,2.1428,3.1960
75311,2.1412,3.1952
75312,2.1444,3.1993
75313,2.1428,3.2097
75314,2.1404,3.2105
75315,2.1371,3.2146
75316,2.1363,3.2234
75317,2.1355,3.2283
75318,2.1323,3.2388
75319,2.1291,3.2516
75320,2.1283,3.2662
75321,2.1267,3.2694
75322,2.1259,3.2863
75323,2.1283,3.2742
75324,2.1275,3.2371
75325,2.1299,3.2089
75326,2.1291,3.1904
75327,2.1283,3.1936
75328,2.1275,3.1888
75329,2.1275,3.2017
75330,2.1234,3.1977
75331,2.1202,3.2009
75332,2.1251,3.2025
75333,2.1178,3.2105
75334,2.1186,3.2130
75335,2.1138,3.2259
75336,2.1130,3.2412
75337,2.1130,3.2621
75338,2.1114,3.2774
75339,2.1089,3.2621
75340,2.1138,3.2468
75341,2.1202,3.2081
75342,2.1234,3.1888
75343,2.1275,3.1751
75344,2.1259,3.1590
75345,2.1275,3.1711
75346,2.1234,3.1711
75347,2.1234,3.1791
75348,2.1226,3.1775
75349,2.1202,3.1872
75350,2.1186,3.1985
75351,2.1186,3.2105
75352,2.1194,3.2299
75353,2.1178,3.2323
75354,2.1154,3.2484
75355,2.1146,3.2516
75356,2.1162,3.2396
75357,2.1226,3.2001
75358,2.1275,3.1598
75359,2.1275,3.1421
75360,2.1259,3.1380
75361,2.1218,3.1340
75362,2.1275,3.1566
75363,2.1251,3.1469
75364,2.1226,3.1590
75365,2.1234,3.1590
75366,2.1218,3.1711
75367,2.1218,3.1840
75368,2.1170,3.1944
75369,2.1154,3.2049
75370,2.1146,3.2275
75371,2.1105,3.2291
75372,2.1105,3.2363
75373,2.1186,3.2154
75374,2.1186,3.2017
75375,2.1186,3.1549
75376,2.1242,3.1412
75377,2.1226,3.1380
75378,2.1275,3.1412
75379,2.1242,3.1332
75380,2.1234,3.1598
75381,2.1218,3.1582
75382,2.1218,3.1670
75383,2.1154,3.1678
75384,2.1218,3.1848
75385,2.1146,3.1977
75386,2.1130,3.2122
75387,2.1138,3.2178
75388,2.1089,3.2347
75389,2.1154,3.2323
75390,2.1178,3.2122
75391,2.1251,3.1775
75392,2.1234,3.1646
75393,2.1275,3.1372
75394,2.1275,3.1332
75395,2.1242,3.1453
75396,2.1259,3.1485
75397,2.1267,3.1549
75398,2.1226,3.1590
75399,2.1202,3.1670
75400,2.1210,3.1848
75401,2.1194,3.1864
75402,2.1162,3.2065
75403,2.1146,3.2065
75404,2.1146,3.2291
75405,2.1146,3.2363
75406,2.1194,3.2033
75407,2.1234,3.1977
75408,2.1275,3.1638
75409,2.1251,3.1332
75410,2.1242,3.1332
75411,2.1234,3.1300
75412,2.1275,3.1533
75413,2.1202,3.1549
75414,2.1186,3.1445
75415,2.1234,3.1590
75416,2.1154,3.1743
75417,2.1170,3.1807
75418,2.1146,3.1960
75419,2.1146,3.2105
75420,2.1130,3.2194
75421,2.1130,3.2242
75422,2.1073,3.2363
75423,2.1146,3.2001
75424,2.1178,3.1848
75425,2.1226,3.1549
75426,2.1251,3.1437
75427,2.1202,3.1421
75428,2.1170,3.1388
75429,2.1251,3.1590
75430,2.1202,3.1590
75431,2.1218,3.1678
75432,2.1154,3.1759
75433,2.1146,3.1880
75434,2.1146,3.1968
75435,2.1146,3.2017
75436,2.1105,3.2162
75437,2.1089,3.2315
75438,2.1105,3.2363
75439,2.1097,3.2363
75440,2.1154,3.2162
75441,2.1186,3.1670
75442,2.1275,3.1598
75443,2.1323,3.1590
75444,2.1388,3.1566
75445,2.1412,3.1590
75446,2.1420,3.1598
75447,2.1460,3.1727
75448,2.1428,3.1848
75449,2.1452,3.1928
75450,2.1428,3.1952
75451,2.1428,3.2105
75452,2.1428,3.2210
75453,2.1379,3.2371
75454,2.1355,3.2444
75455,2.1396,3.2468
75456,2.1460,3.2484
75457,2.1492,3.2363
75458,2.1573,3.2057
75459,2.1605,3.1968
75460,2.1653,3.1952
75461,2.1678,3.1952
75462,2.1702,3.1985
75463,2.1718,3.2089
75464,2.1686,3.2226
75465,2.1678,3.2105
75466,2.1678,3.2283
75467,2.1670,3.2388
75468,2.1670,3.2565
75469,2.1653,3.2613
75470,2.1621,3.2758
75471,2.1605,3.2839
75472,2.1637,3.2879
75473,2.1613,3.2807
75474,2.1710,3.2597
75475,2.1790,3.2347
75476,2.1790,3.2154
75477,2.1790,3.2105
75478,2.1790,3.2105
75479,2.1790,3.2178
75480,2.1815,3.2194
75481,2.1774,3.2323
75482,2.1790,3.2396
75483,2.1766,3.2468
75484,2.1718,3.2533
75485,2.1662,3.2678
75486,2.1678,3.2637
75487,2.1653,3.2863
75488,2.1653,3.2927
75489,2.1653,3.2984
75490,2.1758,3.2903
75491,2.1726,3.2533
75492,2.1750,3.2267
75493,2.1750,3.2162
75494,2.1774,3.2267
75495,2.1790,3.2323
75496,2.1750,3.2291
75497,2.1742,3.2347
75498,2.1702,3.2339
75499,2.1670,3.2484
75500,2.1670,3.2597
75501,2.1662,3.2605
75502,2.1621,3.2734
75503,2.1605,3.2807
75504,2.1589,3.2960
75505,2.1565,3.2992
75506,2.1613,3.3000
75507,2.1589,3.2758
75508,2.1613,3.2307
75509,2.1637,3.2114
75510,2.1637,3.2065
75511,2.1500,3.2049
75512,2.1613,3.2122
75513,2.1645,3.2122
75514,2.1589,3.2226
75515,2.1557,3.2267
75516,2.1533,3.2355
75517,2.1500,3.2492
75518,2.1516,3.2605
75519,2.1516,3.2678
75520,2.1452,3.2879
75521,2.1516,3.2927
75522,2.1452,3.2927
75523,2.1428,3.2678
75524,2.1388,3.2363
75525,2.1388,3.1848
75526,2.1339,3.1590
75527,2.1234,3.1590
75528,2.1275,3.1606
75529,2.1331,3.1614
75530,2.1267,3.1662
75531,2.1234,3.1719
75532,2.1170,3.1848
75533,2.1299,3.1888
75534,2.1154,3.2065
75535,2.1122,3.2186
75536,2.1097,3.2226
75537,2.1065,3.2436
75538,2.1138,3.2468
75539,2.1057,3.2210
75540,2.1057,3.1759
75541,2.1025,3.1284
75542,2.1009,3.0945
75543,2.0872,3.0840
75544,2.0912,3.0816
75545,2.0896,3.0784
75546,2.0904,3.0840
75547,2.0622,3.0937
75548,2.0815,3.1034
75549,2.0622,3.1034
75550,2.0807,3.1211
75551,2.0622,3.1388
75552,2.0622,3.1566
75553,2.0622,3.1646
75554,2.0622,3.1751
75555,2.0622,3.1840
75556,2.0622,3.1574
75557,2.0840,3.1259
75558,2.0872,3.0816
75559,2.0622,3.0687
75560,2.0880,3.0558
75561,2.0622,3.0558
75562,2.0904,3.0558
75563,2.0888,3.0631
75564,2.0622,3.0776
75565,2.0896,3.0824
75566,2.0622,3.1001
75567,2.0840,3.1106
75568,2.0832,3.1275
75569,2.0840,3.1445
75570,2.0622,3.1509
75571,2.0832,3.1574
75572,2.0864,3.1614
75573,2.0904,3.1437
75574,2.0977,3.1074
75575,2.1017,3.0711
75576,2.0944,3.0574
75577,2.1017,3.0526
75578,2.1017,3.0542
75579,2.1017,3.0566
75580,2.1017,3.0639
75581,2.1009,3.0873
75582,2.0993,3.0945
75583,2.1009,3.1074
75584,2.1001,3.1300
75585,2.0977,3.1332
75586,2.0904,3.1477
75587,2.0622,3.1590
75588,2.0960,3.1638
75589,2.0872,3.1670
75590,2.1057,3.1380
75591,2.1057,3.1058
75592,2.1178,3.0727
75593,2.1017,3.0615
75594,2.1017,3.0655
75595,2.1001,3.0687
75596,2.1009,3.0800
75597,2.0985,3.0873
75598,2.0993,3.0969
75599,2.0944,3.1114
75600,2.0928,3.1179
75601,2.0912,3.1332
75602,2.0936,3.1493
75603,2.0832,3.1606
75604,2.0944,3.1767
75605,2.0832,3.1815
75606,2.0960,3.1622
75607,2.1017,3.1332
75608,2.1017,3.0961
75609,2.1017,3.0816
75610,2.1025,3.0816
75611,2.1025,3.0736
75612,2.1001,3.0897
75613,2.1009,3.1034
75614,2.0993,3.1066
75615,2.0968,3.1114
75616,2.0993,3.1187
75617,2.0960,3.1332
75618,2.0944,3.1541
75619,2.0912,3.1606
75620,2.0993,3.1775
75621,2.0832,3.1856
75622,2.0944,3.1848
75623,2.0993,3.1662
75624,2.1033,3.1259
75625,2.1017,3.1018
75626,2.1025,3.0816
75627,2.1065,3.0816
75628,2.1057,3.0824
75629,2.1041,3.0921
75630,2.1033,3.1082
75631,2.1057,3.1090
75632,2.1017,3.1195
75633,2.1017,3.1292
75634,2.1001,3.1421
75635,2.0977,3.1533
75636,2.0840,3.1711
75637,2.0977,3.1735
75638,2.1001,3.1840
75639,2.1009,3.1799
75640,2.1041,3.1501
75641,2.1105,3.1219
75642,2.1154,3.1001
75643,2.1146,3.0937
75644,2.1267,3.0889
75645,2.1267,3.0993
75646,2.1154,3.1082
75647,2.1267,3.1122
75648,2.1275,3.1284
75649,2.1170,3.1332
75650,2.1275,3.1501
75651,2.1275,3.1574
75652,2.1202,3.1719
75653,2.1202,3.1896
75654,2.1202,3.1896
75655,2.1275,3.2049
75656,2.1267,3.1977
75657,2.1323,3.1848
75658,2.1355,3.1453
75659,2.1428,3.1284
75660,2.1428,3.1114
75661,2.1541,3.1106
75662,2.1492,3.1155
75663,2.1492,3.1332
75664,2.1396,3.1348
75665,2.1452,3.1155
75666,2.1412,3.1558
75667,2.1412,3.1098
75668,2.1420,3.1791
75669,2.1396,3.1888
75670,2.1275,3.2114
75671,2.1420,3.2162
75672,2.1379,3.2234
75673,2.1412,3.2194
75674,2.1476,3.1832
75675,2.1492,3.1477
75676,2.1508,3.1332
75677,2.1492,3.1316
75678,2.1525,3.1332
75679,2.1492,3.1324
75680,2.1484,3.1477
75681,2.1508,3.1670
75682,2.1396,3.1606
75683,2.1444,3.1614
75684,2.1412,3.1904
75685,2.1396,3.2033
75686,2.1420,3.2105
75687,2.1396,3.1896
75688,2.1379,3.2363
75689,2.1379,3.2460
75690,2.1428,3.2194
75691,2.1452,3.1775
75692,2.1492,3.1469
75693,2.1444,3.1292
75694,2.1460,3.1348
75695,2.1460,3.1574
75696,2.1476,3.1437
75697,2.1460,3.2146
75698,2.1444,3.1662
75699,2.1436,3.1719
75700,2.1379,3.1848
75701,2.1379,3.2009
75702,2.1355,3.2073
75703,2.1323,3.2275
75704,2.1363,3.2388
75705,2.1299,3.2476
75706,2.1323,3.2339
75707,2.1299,3.1936
75708,2.1315,3.1517
75709,2.1251,3.1324
75710,2.1251,3.1219
75711,2.1234,3.1155
75712,2.1202,3.1275
75713,2.1162,3.1308
75714,2.1146,3.1348
75715,2.1122,3.1421
75716,2.1146,3.1590
75717,2.1073,3.1678
75718,2.1049,3.1840
75719,2.1025,3.1856
75720,2.1057,3.2089
75721,2.1025,3.2146
75722,2.1033,3.1993
75723,2.1017,3.1767
75724,2.0977,3.1147
75725,2.0928,3.0703
75726,2.0960,3.0671
75727,2.0896,3.0582
75728,2.0840,3.0059
75729,2.0815,3.0599
75730,2.0815,3.0703
75731,2.0622,3.0808
75732,2.0815,3.0856
75733,2.0622,3.0897
75734,2.0622,3.1211
75735,2.0622,3.1630
75736,2.0622,3.1388
75737,2.0622,3.1251
75738,2.0622,3.1662
75739,2.0622,3.1517
75740,2.0622,3.1284
75741,2.0840,3.0816
75742,2.0799,3.0518
75743,2.0864,3.0453
75744,2.0872,3.0389
75745,2.0864,3.0437
75746,2.0840,3.0437
75747,2.0880,3.0470
75748,2.0872,3.0744
75749,2.0848,3.0913
75750,2.0848,3.0856
75751,2.0622,3.1066
75752,2.0622,3.1251
75753,2.0622,3.1582
75754,2.0928,3.1461
75755,2.0888,3.1292
75756,2.0872,3.1388
75757,2.0848,3.1098
75758,2.1001,3.0776
75759,2.1001,3.0542
75760,2.0936,3.0510
75761,2.0977,3.0462
75762,2.1009,3.0687
75763,2.0993,3.0647
75764,2.0985,3.0736
75765,2.1017,3.1147
75766,2.1017,3.1074
75767,2.1001,3.1098
75768,2.0960,3.1114
75769,2.0944,3.1437
75770,2.0928,3.1533
75771,2.0936,3.1622
75772,2.0977,3.1711
75773,2.1009,3.1509
75774,2.1009,3.1082
75775,2.1009,3.0816
75776,2.1017,3.0808
75777,2.1009,3.0607
75778,2.1017,3.0574
75779,2.1009,3.0615
75780,2.1009,3.0800
75781,2.1017,3.0929
75782,2.0960,3.1001
75783,2.0993,3.1090
75784,2.0888,3.1163
75785,2.0896,3.1308
75786,2.0904,3.1582
75787,2.0880,3.1638
75788,2.0920,3.1646
75789,2.0936,3.1775
75790,2.1017,3.1445
75791,2.1017,3.1074
75792,2.1057,3.0816
75793,2.1001,3.0864
75794,2.1041,3.0647
75795,2.1009,3.0800
75796,2.1017,3.0889
75797,2.1017,3.0961
75798,2.1017,3.1114
75799,2.0993,3.1227
75800,2.0944,3.1412
75801,2.0977,3.1461
75802,2.0944,3.1453
75803,2.0936,3.1695
75804,2.0936,3.1840
75805,2.0993,3.1695
75806,2.0993,3.1832
75807,2.1017,3.1421
75808,2.1017,3.1316
75809,2.1049,3.0889
75810,2.1025,3.0816
75811,2.1033,3.0816
75812,2.1017,3.0840
75813,2.1017,3.1050
75814,2.1017,3.1058
75815,2.1009,3.1340
75816,2.1017,3.1284
75817,2.1001,3.1388
75818,2.1001,3.1509
75819,2.1001,3.1590
75820,2.0968,3.1727
75821,2.0977,3.1872
75822,2.0993,3.1888
75823,2.1025,3.1703
75824,2.1105,3.1421
75825,2.1130,3.1074
75826,2.1170,3.1074
75827,2.1283,3.0969
75828,2.1259,3.1018
75829,2.1275,3.1066
75830,2.1218,3.1163
75831,2.1259,3.1284
75832,2.1251,3.1324
75833,2.1259,3.1388
75834,2.1194,3.1590
75835,2.1226,3.1646
75836,2.1178,3.1848
75837,2.1194,3.1928
75838,2.1234,3.2009
75839,2.1226,3.2081
75840,2.1291,3.1952
75841,2.1299,3.1678
75842,2.1363,3.1332
75843,2.1404,3.1243
75844,2.1412,3.1074
75845,2.1460,3.1275
75846,2.1404,3.1106
75847,2.1428,3.1533
75848,2.1476,3.1396
75849,2.1388,3.1541
75850,2.1444,3.1638
75851,2.1404,3.1848
75852,2.1396,3.2017
75853,2.1331,3.2105
75854,2.1363,3.2259
75855,2.1363,3.2234
75856,2.1323,3.2291
75857,2.1412,3.2194
75858,2.1460,3.1695
75859,2.1460,3.1509
75860,2.1484,3.1372
75861,2.1460,3.1388
75862,2.1508,3.1533
75863,2.1492,3.1598
75864,2.1444,3.1606
75865,2.1428,3.1727
75866,2.1452,3.1832
75867,2.1404,3.1896
75868,2.1412,3.2154
75869,2.1420,3.2178
75870,2.1379,3.2291
75871,2.1355,3.2363
75872,2.1355,3.2436
75873,2.1388,3.2363
75874,2.1436,3.2299
75875,2.1444,3.1646
75876,2.1492,3.1517
75877,2.1444,3.1453
75878,2.1460,3.1445
75879,2.1460,3.1501
75880,2.1452,3.1582
75881,2.1436,3.1662
75882,2.1355,3.1775
75883,2.1355,3.1840
75884,2.1371,3.1686
75885,2.1363,3.2105
75886,2.1291,3.2202
75887,2.1315,3.2379
75888,2.1299,3.2645
75889,2.1291,3.2452
75890,2.1315,3.2194
75891,2.1275,3.1727
75892,2.1275,3.1388
75893,2.1218,3.1340
75894,2.1226,3.1332
75895,2.1226,3.1243
75896,2.1251,3.1324
75897,2.1154,3.1348
75898,2.1138,3.1461
75899,2.1130,3.1598
75900,2.1105,3.1662
75901,2.1089,3.1799
75902,2.1089,3.1904
75903,2.1073,3.1960
75904,2.1033,3.2097
75905,2.1065,3.2105
75906,2.1017,3.1904
75907,2.0977,3.1388
75908,2.0977,3.0945
75909,2.0928,3.0792
75910,2.0912,3.0776
75911,2.0888,3.0679
75912,2.0864,3.0615
75913,2.0840,3.0695
75914,2.0807,3.0824
75915,2.0622,3.0905
75916,2.0622,3.0969
75917,2.0622,3.1163
75918,2.0622,3.1251
75919,2.0622,3.1437
75920,2.0622,3.1566
75921,2.0622,3.1638
75922,2.0622,3.1646
75923,2.0807,3.1437
75924,2.0848,3.1122
75925,2.0848,3.0703
75926,2.0856,3.0453
75927,2.0928,3.0470
75928,2.0880,3.0478
75929,2.0904,3.0478
75930,2.0928,3.0599
75931,2.0904,3.0760
75932,2.0888,3.0776
75933,2.0912,3.0969
75934,2.0880,3.1130
75935,2.0832,3.1275
75936,2.0864,3.1348
75937,2.0848,3.1477
75938,2.0872,3.1598
75939,2.0928,3.1541
75940,2.0928,3.1372
75941,2.1017,3.0937
75942,2.1009,3.0631
75943,2.1017,3.0558
75944,2.1057,3.0518
75945,2.1025,3.0566
75946,2.1033,3.0526
75947,2.1017,3.0760
75948,2.1017,3.0824
75949,2.1001,3.0969
75950,2.1009,3.1082
75951,2.1017,3.1243
75952,2.0993,3.1356
75953,2.0928,3.1541
75954,2.0968,3.1614
75955,2.0977,3.1646
75956,2.1017,3.1743
75957,2.1033,3.1364
75958,2.1057,3.0905
75959,2.1033,3.0776
75960,2.1057,3.0655
75961,2.1017,3.0647
75962,2.1017,3.0703
75963,2.1017,3.0816
75964,2.1017,3.0937
75965,2.1025,3.1026
75966,2.0977,3.1082
75967,2.1009,3.1324
75968,2.0960,3.1437
75969,2.0993,3.1517
75970,2.0985,3.1614
75971,2.0960,3.1711
75972,2.0960,3.1799
75973,2.1017,3.1590
75974,2.1049,3.1292
75975,2.1017,3.0905
75976,2.1065,3.0832
75977,2.1057,3.0864
75978,2.1025,3.0832
75979,2.1089,3.0913
75980,2.1073,3.0993
75981,2.1049,3.1090
75982,2.1049,3.1316
75983,2.1025,3.1308
75984,2.1017,3.1380
75985,2.1017,3.1590
75986,2.1009,3.1670
75987,2.0993,3.1848
75988,2.1017,3.1936
75989,2.1041,3.1872
75990,2.1073,3.1622
75991,2.1146,3.1219
75992,2.1138,3.0937
75993,2.1089,3.0768
75994,2.1122,3.0808
75995,2.0993,3.0824
75996,2.1122,3.0985
75997,2.1146,3.1074
75998,2.1097,3.1187
75999,2.1154,3.1332
76000,2.1122,3.1332
76001,2.1097,3.1509
76002,2.1073,3.1614
76003,2.1017,3.1791
76004,2.1057,3.1840
76005,2.1057,3.1928
76006,2.1105,3.1832
76007,2.1146,3.1485
76008,2.1154,3.1001
76009,2.1170,3.0760
76010,2.1146,3.0663
76011,2.1202,3.0558
76012,2.1186,3.0727
76013,2.1170,3.0808
76014,2.1162,3.0937
76015,2.1162,3.1082
76016,2.1178,3.1179
76017,2.1146,3.1372
76018,2.1186,3.1469
76019,2.1170,3.1590
76020,2.1186,3.1719
76021,2.1226,3.1743
76022,2.1331,3.1574
76023,2.1452,3.1243
76024,2.1484,3.0792
76025,2.1533,3.0349
76026,2.1557,3.0042
76027,2.1581,3.0042
76028,2.1589,3.0042
76029,2.1581,3.0163
76030,2.1557,3.0220
76031,2.1573,3.0389
76032,2.1557,3.0518
76033,2.1533,3.0663
76034,2.1541,3.0816
76035,2.1549,3.1050
76036,2.1525,3.1163
76037,2.1533,3.1340
76038,2.1541,3.1332
76039,2.1573,3.1453
76040,2.1670,3.1179
76041,2.1484,3.0856
76042,2.1645,3.0542
76043,2.1533,3.0381
76044,2.1670,3.0437
76045,2.1533,3.0437
76046,2.1653,3.0607
76047,2.1645,3.0703
76048,2.1653,3.0816
76049,2.1605,3.1010
76050,2.1621,3.1114
76051,2.1565,3.1292
76052,2.1533,3.1477
76053,2.1508,3.1590
76054,2.1533,3.1711
76055,2.1533,3.1848
76056,2.1549,3.1807
76057,2.1621,3.1501
76058,2.1581,3.1074
76059,2.1557,3.0776
76060,2.1573,3.0703
76061,2.1621,3.0744
76062,2.1541,3.0824
76063,2.1605,3.0929
76064,2.1533,3.1074
76065,2.1525,3.1163
76066,2.1533,3.1251
76067,2.1484,3.1445
76068,2.1492,3.1549
76069,2.1460,3.1727
76070,2.1412,3.1888
76071,2.1404,3.1928
76072,2.1460,3.2081
76073,2.1492,3.1840
76074,2.1315,3.1525
76075,2.1662,3.1074
76076,2.1460,3.0913
76077,2.1347,3.0897
76078,2.1452,3.0856
76079,2.1436,3.0921
76080,2.1396,3.1074
76081,2.1428,3.1195
76082,2.1355,3.1292
76083,2.1355,3.1437
76084,2.1379,3.1582
76085,2.1299,3.1703
76086,2.1299,3.1775
76087,2.1275,3.1985
76088,2.1275,3.2105
76089,2.1291,3.2097
76090,2.1331,3.1767
76091,2.1412,3.1332
76092,2.1347,3.1034
76093,2.1355,3.0856
76094,2.1355,3.0840
76095,2.1355,3.0889
76096,2.1379,3.0953
76097,2.1355,3.0993
76098,2.1331,3.1179
76099,2.1307,3.1211
76100,2.1275,3.1429
76101,2.1275,3.1549
76102,2.1355,3.1678
76103,2.1267,3.1848
76104,2.1234,3.1960
76105,2.1251,3.1993
76106,2.1259,3.1928
76107,2.1291,3.1590
76108,2.1379,3.1195
76109,2.1291,3.0905
76110,2.1299,3.0824
76111,2.1275,3.0808
76112,2.1388,3.0913
76113,2.1291,3.1001
76114,2.1267,3.1050
76115,2.1267,3.1203
76116,2.1275,3.1324
76117,2.1210,3.1461
76118,2.1210,3.1574
76119,2.1097,3.1711
76120,2.1234,3.1864
76121,2.1194,3.1960
76122,2.1194,3.1952
76123,2.1251,3.1896
76124,2.1170,3.1453
76125,2.1283,3.1034
76126,2.1267,3.0864
76127,2.1388,3.0824
76128,2.1170,3.0873
76129,2.1275,3.0937
76130,2.1259,3.1001
76131,2.1251,3.0969
76132,2.1283,3.1179
76133,2.1202,3.1332
76134,2.1251,3.1501
76135,2.1162,3.1678
76136,2.1194,3.1807
76137,2.1130,3.1904
76138,2.1154,3.2291
76139,2.1226,3.2057
76140,2.1275,3.1743
76141,2.1275,3.1485
76142,2.1299,3.1034
76143,2.1291,3.0897
76144,2.1267,3.0889
76145,2.1331,3.0945
76146,2.1299,3.1074
76147,2.1275,3.1114
76148,2.1275,3.1211
76149,2.1226,3.1292
76150,2.1234,3.1453
76151,2.1275,3.1614
76152,2.1234,3.1727
76153,2.1194,3.1872
76154,2.1170,3.1960
76155,2.1234,3.2105
76156,2.1234,3.1968
76157,2.1291,3.1735
76158,2.1275,3.1251
76159,2.1226,3.1050
76160,2.1267,3.0969
76161,2.1275,3.0961
76162,2.1105,3.1001
76163,2.1275,3.1074
76164,2.1242,3.1155
76165,2.1259,3.1372
76166,2.1251,3.1388
76167,2.1194,3.1372
76168,2.1146,3.1670
76169,2.1170,3.1807
76170,2.1178,3.1896
76171,2.1267,3.2025
76172,2.1186,3.2081
76173,2.1242,3.1888
76174,2.1267,3.1533
76175,2.1267,3.1163
76176,2.1251,3.1050
76177,2.1259,3.0921
76178,2.1259,3.0985
76179,2.1259,3.1066
76180,2.1267,3.1187
76181,2.1251,3.1163
76182,2.1218,3.1292
76183,2.1251,3.1404
76184,2.1170,3.1566
76185,2.1178,3.1662
76186,2.1162,3.1840
76187,2.1162,3.1872
76188,2.1154,3.2017
76189,2.1170,3.2097
76190,2.1218,3.1823
76191,2.1226,3.1453
76192,2.1259,3.1074
76193,2.1291,3.1026
76194,2.1275,3.0961
76195,2.1275,3.1018
76196,2.1251,3.0953
76197,2.1234,3.1130
76198,2.1267,3.1251
76199,2.1218,3.1372
76200,2.1178,3.1477
76201,2.1178,3.1517
76202,2.1186,3.1791
76203,2.1170,3.1807
76204,2.1202,3.1888
76205,2.1162,3.2065
76206,2.1218,3.2105
76207,2.1259,3.1960
76208,2.1347,3.1590
76209,2.1323,3.1058
76210,2.1363,3.1243
76211,2.1444,3.1259
76212,2.1396,3.1493
76213,2.1404,3.1090
76214,2.1396,3.1493
76215,2.1363,3.1292
76216,2.1331,3.1590
76217,2.1371,3.1791
76218,2.1388,3.1904
76219,2.1331,3.2057
76220,2.1299,3.2154
76221,2.1291,3.2226
76222,2.1355,3.2371
76223,2.1371,3.2315
76224,2.1420,3.2033
76225,2.1484,3.1590
76226,2.1484,3.1461
76227,2.1508,3.1356
76228,2.1460,3.1364
76229,2.1468,3.1598
76230,2.1476,3.1517
76231,2.1492,3.1630
76232,2.1460,3.1630
76233,2.1452,3.1848
76234,2.1388,3.1928
76235,2.1388,3.2339
76236,2.1355,3.2178
76237,2.1412,3.2283
76238,2.1363,3.2291
76239,2.1379,3.2436
76240,2.1436,3.2363
76241,2.1460,3.1985
76242,2.1460,3.1606
76243,2.1533,3.1517
76244,2.1452,3.1453
76245,2.1492,3.1541
76246,2.1476,3.1807
76247,2.1460,3.1590
76248,2.1452,3.1695
76249,2.1460,3.1896
76250,2.1428,3.1936
76251,2.1396,3.2057
76252,2.1347,3.2146
76253,2.1355,3.2371
76254,2.1371,3.2323
76255,2.1331,3.2323
76256,2.1363,3.2444
76257,2.1331,3.2251
76258,2.1315,3.1719
76259,2.1291,3.1421
76260,2.1275,3.1332
76261,2.1275,3.1211
76262,2.1259,3.1332
76263,2.1242,3.1404
76264,2.1186,3.1501
76265,2.1162,3.1549
76266,2.1146,3.1598
76267,2.1146,3.1799
76268,2.1130,3.1952
76269,2.1122,3.1960
76270,2.1114,3.2105
76271,2.1073,3.2275
76272,2.1041,3.2251
76273,2.1073,3.1896
76274,2.1033,3.1469
76275,2.0993,3.1074
76276,2.1001,3.0816
76277,2.0936,3.0711
76278,2.0977,3.0711
76279,2.0944,3.0768
76280,2.0912,3.0832
76281,2.0864,3.0897
76282,2.0840,3.0969
76283,2.0807,3.1122
76284,2.0815,3.1292
76285,2.0622,3.1259
76286,2.0622,3.1549
76287,2.0622,3.1622
76288,2.0832,3.1743
76289,2.0848,3.1767
76290,2.0880,3.1485
76291,2.0912,3.1001
76292,2.0928,3.0703
76293,2.0920,3.0534
76294,2.0960,3.0405
76295,2.0912,3.0510
76296,2.0912,3.0615
76297,2.0928,3.0679
76298,2.0968,3.0808
76299,2.0872,3.0848
76300,2.0896,3.1211
76301,2.0936,3.1187
76302,2.0912,3.1155
76303,2.0936,3.1429
76304,2.0896,3.1574
76305,2.0936,3.1711
76306,2.0936,3.1348
76307,2.1009,3.1058
76308,2.1017,3.0905
76309,2.1017,3.0679
76310,2.1057,3.0599
76311,2.1017,3.0816
76312,2.1089,3.0599
76313,2.1065,3.0736
76314,2.1073,3.0816
76315,2.1033,3.0864
76316,2.1049,3.1018
76317,2.1017,3.1179
76318,2.1025,3.1477
76319,2.1025,3.1485
76320,2.1017,3.1590
76321,2.1033,3.1743
76322,2.1033,3.1823
76323,2.1130,3.1719
76324,2.1146,3.1372
76325,2.1073,3.0937
76326,2.1138,3.0832
76327,2.1130,3.0744
76328,2.1105,3.0816
76329,2.1138,3.0816
76330,2.1089,3.0873
76331,2.1130,3.1001
76332,2.1114,3.1155
76333,2.1089,3.1292
76334,2.1081,3.1388
76335,2.1057,3.1541
76336,2.1025,3.1646
76337,2.1017,3.1767
76338,2.1057,3.1864
76339,2.1097,3.1864
76340,2.1130,3.1630
76341,2.1154,3.1219
76342,2.1154,3.0993
76343,2.1186,3.0856
76344,2.1146,3.0856
76345,2.1146,3.1058
76346,2.1170,3.0961
76347,2.1138,3.1098
76348,2.1146,3.1203
76349,2.1130,3.1332
76350,2.1122,3.1453
76351,2.1089,3.1541
76352,2.1097,3.1678
76353,2.1097,3.1848
76354,2.1065,3.1904
76355,2.1073,3.1985
76356,2.1114,3.1952
76357,2.1154,3.1662
76358,2.1154,3.1259
76359,2.1162,3.1034
76360,2.1218,3.1018
76361,2.1202,3.0889
76362,2.1154,3.0985
76363,2.1170,3.1074
76364,2.1146,3.1227
76365,2.1202,3.1332
76366,2.1154,3.1356
76367,2.1146,3.1541
76368,2.1146,3.1590
76369,2.1105,3.1832
76370,2.1114,3.2122
76371,2.1105,3.2017
76372,2.1130,3.2065
76373,2.1146,3.1896
76374,2.1178,3.1598
76375,2.1259,3.1275
76376,2.1307,3.1074
76377,2.1299,3.1074
76378,2.1331,3.1114
76379,2.1355,3.1147
76380,2.1371,3.1074
76381,2.1363,3.1332
76382,2.1355,3.1445
76383,2.1331,3.1509
76384,2.1331,3.1598
76385,2.1331,3.1711
76386,2.1291,3.1936
76387,2.1299,3.2105
76388,2.1323,3.2162
76389,2.1315,3.2218
76390,2.1388,3.2130
76391,2.1492,3.1848
76392,2.1508,3.1590
76393,2.1557,3.1453
76394,2.1549,3.1332
76395,2.1613,3.1380
76396,2.1589,3.1469
76397,2.1581,3.1541
76398,2.1589,3.1590
76399,2.1549,3.1767
76400,2.1541,3.1848
76401,2.1541,3.2009
76402,2.1533,3.2065
76403,2.1557,3.2162
76404,2.1533,3.2363
76405,2.1525,3.2412
76406,2.1533,3.2581
76407,2.1549,3.2339
76408,2.1589,3.1936
76409,2.1629,3.1775
76410,2.1670,3.1590
76411,2.1653,3.1590
76412,2.1670,3.1582
76413,2.1637,3.1678
76414,2.1653,3.1727
76415,2.1637,3.1880
76416,2.1629,3.1993
76417,2.1637,3.2081
76418,2.1629,3.2242
76419,2.1541,3.2347
76420,2.1541,3.2315
76421,2.1533,3.2613
76422,2.1589,3.2621
76423,2.1573,3.2613
76424,2.1621,3.2339
76425,2.1653,3.1904
76426,2.1605,3.1767
76427,2.1662,3.1582
76428,2.1653,3.1606
76429,2.1613,3.1670
76430,2.1637,3.1767
76431,2.1637,3.1807
76432,2.1621,3.1888
76433,2.1573,3.2033
76434,2.1541,3.2089
76435,2.1533,3.2283
76436,2.1516,3.2363
76437,2.1508,3.2516
76438,2.1516,3.2597
76439,2.1533,3.2678
76440,2.1516,3.2476
76441,2.1500,3.1985
76442,2.1428,3.1566
76443,2.1420,3.1509
76444,2.1460,3.1485
76445,2.1396,3.1388
76446,2.1363,3.1509
76447,2.1355,3.1590
76448,2.1347,3.1695
76449,2.1323,3.1807
76450,2.1299,3.1864
76451,2.1275,3.2001
76452,2.1267,3.2105
76453,2.1267,3.2339
76454,2.1234,3.2315
76455,2.1259,3.2468
76456,2.1234,3.2210
76457,2.1194,3.1856
76458,2.1146,3.1356
76459,2.1138,3.1034
76460,2.1122,3.0856
76461,2.1089,3.0840
76462,2.1089,3.0905
76463,2.1033,3.0945
76464,2.1017,3.1074
76465,2.1017,3.1090
76466,2.0993,3.1324
76467,2.0993,3.1332
76468,2.0968,3.1445
76469,2.0912,3.1638
76470,2.0928,3.1678
76471,2.0912,3.1888
76472,2.0928,3.1968
76473,2.0977,3.1719
76474,2.1017,3.1332
76475,2.1041,3.0921
76476,2.1025,3.0687
76477,2.1041,3.0639
76478,2.1041,3.0615
76479,2.1097,3.0711
76480,2.1073,3.0792
76481,2.1057,3.0873
76482,2.1017,3.0993
76483,2.1057,3.1098
76484,2.1057,3.1292
76485,2.0888,3.1388
76486,2.1017,3.1582
76487,2.0993,3.1686
76488,2.1017,3.1775
76489,2.1017,3.1735
76490,2.1073,3.1590
76491,2.1114,3.1219
76492,2.1146,3.0905
76493,2.1194,3.0744
76494,2.1170,3.0615
76495,2.1162,3.0687
76496,2.1146,3.0768
76497,2.1178,3.0864
76498,2.1170,3.1018
76499,2.1146,3.1122
76500,2.1130,3.1227
76501,2.1089,3.1437
76502,2.1122,3.1590
76503,2.1089,3.1759
76504,2.1130,3.1848
76505,2.1114,3.1912
76506,2.1146,3.1888
76507,2.1170,3.1606
76508,2.1202,3.1187
76509,2.1218,3.0929
76510,2.1194,3.0832
76511,2.1234,3.0840
76512,2.1226,3.0937
76513,2.1234,3.0913
76514,2.1202,3.1074
76515,2.1194,3.1155
76516,2.1202,3.1211
76517,2.1234,3.1461
76518,2.1146,3.1598
76519,2.1146,3.1775
76520,2.1122,3.1872
76521,2.1138,3.1936
76522,2.1105,3.1985
76523,2.1146,3.1928
76524,2.1234,3.1590
76525,2.1202,3.1074
76526,2.1275,3.1001
76527,2.1251,3.1018
76528,2.1234,3.0969
76529,2.1114,3.1074
76530,2.1275,3.1163
76531,2.1251,3.1155
76532,2.1218,3.1292
76533,2.1186,3.1421
76534,2.1267,3.1590
76535,2.1162,3.1711
76536,2.1162,3.1848
76537,2.1138,3.2001
76538,2.1097,3.2089
76539,2.1226,3.2122
76540,2.1202,3.1904
76541,2.1275,3.1533
76542,2.1251,3.1251
76543,2.1259,3.1098
76544,2.1275,3.1001
76545,2.1138,3.1114
76546,2.1275,3.1195
76547,2.1267,3.1284
76548,2.1259,3.1437
76549,2.1259,3.1453
76550,2.1251,3.1590
76551,2.1234,3.1775
76552,2.1210,3.1848
76553,2.1186,3.1936
76554,2.1146,3.2081
76555,2.1202,3.2105
76556,2.1259,3.2105
76557,2.1267,3.1872
76558,2.1275,3.1421
76559,2.1347,3.1195
76560,2.1420,3.1090
76561,2.1412,3.1098
76562,2.1444,3.1203
76563,2.1476,3.1251
76564,2.1420,3.1372
76565,2.1412,3.1477
76566,2.1581,3.1590
76567,2.1412,3.1711
76568,2.1363,3.1823
76569,2.1404,3.1936
76570,2.1412,3.2130
76571,2.1420,3.2146
76572,2.1379,3.2315
76573,2.1444,3.2259
76574,2.1500,3.2105
76575,2.1525,3.1670
76576,2.1581,3.1453
76577,2.1605,3.1356
76578,2.1662,3.1380
76579,2.1637,3.1493
76580,2.1782,3.1590
76581,2.1653,3.1703
76582,2.1662,3.1775
76583,2.1605,3.1856
76584,2.1605,3.1968
76585,2.1573,3.2130
76586,2.1557,3.2251
76587,2.1533,3.2339
76588,2.1589,3.2492
76589,2.1533,3.2581
76590,2.1613,3.2492
76591,2.1621,3.2154
76592,2.1653,3.1799
76593,2.1670,3.1646
76594,2.1678,3.1630
76595,2.1742,3.1622
76596,2.1686,3.1799
76597,2.1702,3.1807
76598,2.1662,3.1856
76599,2.1637,3.1968
76600,2.1662,3.2033
76601,2.1621,3.2178
76602,2.1589,3.2363
76603,2.1549,3.2420
76604,2.1525,3.2581
76605,2.1533,3.2613
76606,2.1573,3.2637
76607,2.1629,3.2573
76608,2.1637,3.2097
76609,2.1653,3.1727
76610,2.1645,3.1711
76611,2.1621,3.1646
76612,2.1573,3.1678
76613,2.1605,3.1767
76614,2.1589,3.1840
76615,2.1573,3.1944
76616,2.1645,3.1985
76617,2.1533,3.2089
76618,2.1533,3.2234
76619,2.1516,3.2363
76620,2.1516,3.2468
76621,2.1500,3.2613
76622,2.1525,3.2694
76623,2.1508,3.2581
76624,2.1533,3.2242
76625,2.1508,3.1840
76626,2.1508,3.1582
76627,2.1452,3.1541
76628,2.1476,3.1461
76629,2.1412,3.1558
76630,2.1379,3.1574
76631,2.1363,3.1622
76632,2.1283,3.1807
76633,2.1331,3.1461
76634,2.1291,3.1968
76635,2.1275,3.2130
76636,2.1267,3.2259
76637,2.1275,3.2412
76638,2.1267,3.2492
76639,2.1275,3.2355
76640,2.1226,3.2057
76641,2.1162,3.1606
76642,2.1130,3.1227
76643,2.1073,3.1001
76644,2.1105,3.0937
76645,2.1041,3.0921
76646,2.1041,3.0993
76647,2.1049,3.1066
76648,2.1033,3.1130
76649,2.1009,3.1275
76650,2.0993,3.1372
76651,2.1009,3.1501
76652,2.0960,3.1646
76653,2.0936,3.1904
76654,2.0960,3.1904
76655,2.0912,3.1985
76656,2.0968,3.1856
76657,2.1033,3.1630
76658,2.1057,3.1082
76659,2.1017,3.0913
76660,2.1025,3.0711
76661,2.1025,3.0687
76662,2.1041,3.0727
76663,2.1033,3.0784
76664,2.1025,3.0897
76665,2.1017,3.1018
76666,2.1033,3.1106
76667,2.1017,3.1114
76668,2.1017,3.1340
76669,2.1017,3.1517
76670,2.1097,3.1703
76671,2.0993,3.1848
76672,2.1017,3.1848
76673,2.1017,3.1695
76674,2.1089,3.1412
76675,2.1073,3.0961
76676,2.1130,3.0768
76677,2.1146,3.0760
76678,2.1186,3.0558
76679,2.1122,3.0816
76680,2.1138,3.0889
76681,2.1154,3.0945
76682,2.1146,3.1130
76683,2.1130,3.1195
76684,2.1097,3.1372
76685,2.1122,3.1509
76686,2.1057,3.1872
76687,2.1057,3.1767
76688,2.1049,3.1848
76689,2.1065,3.1888
76690,2.1162,3.1759
76691,2.1202,3.1348
76692,2.1186,3.0848
76693,2.1162,3.0816
76694,2.1218,3.0840
76695,2.1226,3.0929
76696,2.1218,3.0969
76697,2.1202,3.1058
76698,2.1170,3.1187
76699,2.1202,3.1324
76700,2.1146,3.1388
76701,2.1162,3.1590
76702,2.1105,3.2065
76703,2.1138,3.1678
76704,2.1138,3.1864
76705,2.1146,3.1977
76706,2.1138,3.1993
76707,2.1251,3.1678
76708,2.1242,3.1235
76709,2.1251,3.1018
76710,2.1234,3.0824
76711,2.1259,3.0905
76712,2.1242,3.0985
76713,2.1242,3.1074
76714,2.1146,3.1098
76715,2.1202,3.1284
76716,2.1154,3.1404
76717,2.1154,3.1445
76718,2.1146,3.1920
76719,2.1138,3.1727
76720,2.1154,3.1872
76721,2.1146,3.1968
76722,2.1130,3.2234
76723,2.1178,3.2065
76724,2.1226,3.1670
76725,2.1251,3.1219
76726,2.1234,3.0993
76727,2.1267,3.0977
76728,2.1259,3.1034
76729,2.1259,3.1074
76730,2.1259,3.1050
76731,2.1202,3.1275
76732,2.1226,3.1364
76733,2.1202,3.1469
76734,2.1170,3.1606
76735,2.1122,3.1783
76736,2.1146,3.1856
76737,2.1146,3.1985
76738,2.1146,3.2114
76739,2.1170,3.2138
76740,2.1202,3.1888
76741,2.1251,3.1549
76742,2.1275,3.1300
76743,2.1267,3.0993
76744,2.1267,3.0961
76745,2.1315,3.1074
76746,2.1275,3.1098
76747,2.1275,3.1147
76748,2.1267,3.1243
76749,2.1283,3.1388
76750,2.1202,3.1501
76751,2.1202,3.1590
76752,2.1194,3.1767
76753,2.1242,3.1799
76754,2.1218,3.1993
76755,2.1218,3.2146
76756,2.1259,3.2065
76757,2.1299,3.2114
76758,2.1404,3.1703
76759,2.1436,3.1163
76760,2.1492,3.1050
76761,2.1460,3.0921
76762,2.1516,3.1058
76763,2.1541,3.1090
76764,2.1484,3.1219
76765,2.1476,3.1332
76766,2.1508,3.1187
76767,2.1484,3.1574
76768,2.1476,3.1727
76769,2.1452,3.1848
76770,2.1428,3.1799
76771,2.1452,3.2081
76772,2.1500,3.2589
76773,2.1500,3.2186
76774,2.1557,3.1888
76775,2.1573,3.1493
76776,2.1573,3.1275
76777,2.1597,3.1243
76778,2.1557,3.1155
76779,2.1605,3.1243
76780,2.1581,3.1316
76781,2.1565,3.1412
76782,2.1549,3.1485
76783,2.1533,3.1678
76784,2.1533,3.1832
76785,2.1525,3.1952
76786,2.1492,3.2081
76787,2.1508,3.2154
76788,2.1508,3.2307
76789,2.1516,3.2388
76790,2.1533,3.2138
76791,2.1541,3.1799
76792,2.1533,3.1719
76793,2.1533,3.1114
76794,2.1581,3.1026
76795,2.1589,3.1066
76796,2.1533,3.1203
76797,2.1533,3.1243
76798,2.1549,3.1404
76799,2.1541,3.1453
76800,2.1508,3.1670
76801,2.1484,3.1832
76802,2.1476,3.2105
76803,2.1476,3.2081
76804,2.1484,3.1848
76805,2.1533,3.2291
76806,2.1533,3.2122
76807,2.1557,3.1807
76808,2.1557,3.1372
76809,2.1549,3.0985
76810,2.1549,3.0840
76811,2.1533,3.0840
76812,2.1549,3.0873
76813,2.1549,3.0977
76814,2.1516,3.1042
76815,2.1533,3.1171
76816,2.1525,3.1259
76817,2.1525,3.1469
76818,2.1428,3.1711
76819,2.1460,3.1791
76820,2.1500,3.1888
76821,2.1444,3.1993
76822,2.1460,3.2202
76823,2.1396,3.1896
76824,2.1525,3.1525
76825,2.1452,3.1082
76826,2.1508,3.0929
76827,2.1484,3.0776
76828,2.1492,3.0727
76829,2.1484,3.0824
76830,2.1444,3.0937
76831,2.1452,3.1098
76832,2.1428,3.1195
76833,2.1388,3.1332
76834,2.1355,3.1590
76835,2.1347,3.1598
76836,2.1315,3.1727
76837,2.1283,3.1832
76838,2.1283,3.1977
76839,2.1315,3.2049
76840,2.1355,3.1807
76841,2.1388,3.1453
76842,2.1428,3.0985
76843,2.1388,3.0873
76844,2.1363,3.0905
76845,2.1420,3.0905
76846,2.1412,3.0808
76847,2.1379,3.1066
76848,2.1347,3.1203
76849,2.1315,3.1227
76850,2.1323,3.1372
76851,2.1299,3.1509
76852,2.1299,3.1767
76853,2.1275,3.1872
76854,2.1275,3.1960
76855,2.1299,3.2033
76856,2.1299,3.2033
76857,2.1363,3.1840
76858,2.1347,3.1324
76859,2.1404,3.1026
76860,2.1388,3.0937
76861,2.1379,3.0873
76862,2.1396,3.0929
76863,2.1379,3.0993
76864,2.1379,3.1090
76865,2.1379,3.1219
76866,2.1323,3.1421
76867,2.1331,3.1517
76868,2.1315,3.1606
76869,2.1299,3.1791
76870,2.1275,3.1960
76871,2.1275,3.2033
76872,2.1283,3.2105
76873,2.1307,3.1993
76874,2.1355,3.1727
76875,2.1404,3.1275
76876,2.1388,3.1066
76877,2.1412,3.0985
76878,2.1396,3.1018
76879,2.1396,3.1018
76880,2.1420,3.1211
76881,2.1412,3.1243
76882,2.1339,3.1364
76883,2.1363,3.1453
76884,2.1323,3.1711
76885,2.1355,3.1711
76886,2.1323,3.1872
76887,2.1275,3.1968
76888,2.1307,3.2122
76889,2.1299,3.2170
76890,2.1363,3.2033
76891,2.1428,3.1662
76892,2.1404,3.1308
76893,2.1404,3.1098
76894,2.1404,3.1066
76895,2.1420,3.1098
76896,2.1412,3.1195
76897,2.1412,3.1243
76898,2.1396,3.1356
76899,2.1347,3.1453
76900,2.1396,3.1590
76901,2.1355,3.1727
76902,2.1275,3.1864
76903,2.1291,3.1960
76904,2.1275,3.2105
76905,2.1275,3.2194
76906,2.1283,3.2194
76907,2.1363,3.1896
76908,2.1388,3.1590
76909,2.1396,3.1195
76910,2.1371,3.1098
76911,2.1388,3.1082
76912,2.1388,3.1138
76913,2.1388,3.1219
76914,2.1363,3.1332
76915,2.1355,3.1469
76916,2.1315,3.1549
76917,2.1331,3.1678
76918,2.1291,3.1848
76919,2.1275,3.2001
76920,2.1283,3.2017
76921,2.1275,3.2226
76922,2.1275,3.2299
76923,2.1291,3.2130
76924,2.1347,3.1848
76925,2.1347,3.1380
76926,2.1363,3.1251
76927,2.1396,3.1155
76928,2.1363,3.1138
76929,2.1363,3.1219
76930,2.1355,3.1324
76931,2.1323,3.1437
76932,2.1307,3.1477
76933,2.1315,3.1670
76934,2.1299,3.1759
76935,2.1275,3.1872
76936,2.1259,3.1960
76937,2.1251,3.2105
76938,2.1275,3.2242
76939,2.1267,3.2234
76940,2.1323,3.2130
76941,2.1379,3.1759
76942,2.1379,3.1372
76943,2.1396,3.1155
76944,2.1404,3.1147
76945,2.1355,3.1098
76946,2.1388,3.1300
76947,2.1363,3.1292
76948,2.1347,3.1316
76949,2.1323,3.1485
76950,2.1299,3.1582
76951,2.1275,3.1711
76952,2.1283,3.1848
76953,2.1388,3.2017
76954,2.1275,3.2146
76955,2.1275,3.2202
76956,2.1283,3.2291
76957,2.1331,3.1985
76958,2.1388,3.1832
76959,2.1291,3.1549
76960,2.1444,3.1445
76961,2.1492,3.1429
76962,2.1428,3.1453
76963,2.1452,3.1517
76964,2.1436,3.1590
76965,2.1428,3.1670
76966,2.1396,3.1735
76967,2.1396,3.1848
76968,2.1355,3.2001
76969,2.1404,3.2105
76970,2.1379,3.2275
76971,2.1363,3.2363
76972,2.1331,3.2396
76973,2.1331,3.2420
76974,2.1444,3.2291
76975,2.1420,3.1848
76976,2.1468,3.1638
76977,2.1500,3.1549
76978,2.1460,3.1541
76979,2.1492,3.1662
76980,2.1533,3.1630
76981,2.1476,3.1759
76982,2.1452,3.1920
76983,2.1420,3.1928
76984,2.1436,3.2049
76985,2.1363,3.2105
76986,2.1363,3.2154
76987,2.1396,3.2492
76988,2.1404,3.2581
76989,2.1388,3.2581
76990,2.1396,3.2484
76991,2.1339,3.2097
76992,2.1323,3.1735
76993,2.1242,3.1590
76994,2.1299,3.1453
76995,2.1275,3.1445
76996,2.1404,3.1501
76997,2.1283,3.1582
76998,2.1275,3.1678
76999,2.1267,3.1767
77000,2.1226,3.1928
77001,2.1170,3.2001
77002,2.1154,3.2105
77003,2.1162,3.2218
77004,2.1154,3.2363
77005,2.1114,3.2468
77006,2.1122,3.2339
77007,2.1130,3.1952
77008,2.1146,3.1541
77009,2.1041,3.1211
77010,2.1017,3.1050
77011,2.1065,3.1074
77012,2.1033,3.1082
77013,2.1017,3.1074
77014,2.1017,3.1122
77015,2.0807,3.1275
77016,2.0968,3.1356
77017,2.0912,3.1493
77018,2.0944,3.1606
77019,2.0912,3.1767
77020,2.0904,3.1880
77021,2.0920,3.2057
77022,2.0985,3.2089
77023,2.0977,3.1936
77024,2.1017,3.1590
77025,2.1073,3.1195
77026,2.1017,3.0969
77027,2.1033,3.0824
77028,2.1057,3.0744
77029,2.1033,3.0816
77030,2.1073,3.0840
77031,2.1033,3.0993
77032,2.1025,3.1058
77033,2.0848,3.1227
77034,2.1017,3.1324
77035,2.1017,3.1501
77036,2.1017,3.1638
77037,2.1017,3.1799
77038,2.0993,3.1856
77039,2.0977,3.1960
77040,2.1041,3.1767
77041,2.1097,3.1356
77042,2.1146,3.1018
77043,2.1186,3.0856
77044,2.1146,3.0784
77045,2.1154,3.0816
77046,2.1162,3.0889
77047,2.1146,3.1018
77048,2.1065,3.1082
77049,2.1154,3.1227
77050,2.1170,3.1332
77051,2.1146,3.1469
77052,2.1146,3.1590
77053,2.1097,3.1775
77054,2.1138,3.1848
77055,2.1097,3.1960
77056,2.1138,3.1985
77057,2.1194,3.1840
77058,2.1202,3.1332
77059,2.1234,3.1147
77060,2.1218,3.0985
77061,2.1251,3.0961
77062,2.1226,3.1034
77063,2.1251,3.1074
77064,2.1267,3.1227
77065,2.1202,3.1332
77066,2.1202,3.1437
77067,2.1146,3.1566
77068,2.1186,3.1751
77069,2.1146,3.1848
77070,2.1146,3.1968
77071,2.1170,3.2033
77072,2.1146,3.2194
77073,2.1178,3.2089
77074,2.1154,3.1848
77075,2.1146,3.1404
77076,2.1275,3.1219
77077,2.1275,3.1122
77078,2.1283,3.1147
77079,2.1460,3.1243
77080,2.1283,3.1324
77081,2.1275,3.1469
77082,2.1275,3.1566
77083,2.1242,3.1678
77084,2.1218,3.1751
77085,2.1218,3.1904
77086,2.1218,3.1977
77087,2.1186,3.2122
77088,2.1202,3.2259
77089,2.1202,3.2315
77090,2.1267,3.2194
77091,2.1291,3.1807
77092,2.1291,3.1469
77093,2.1299,3.1122
77094,2.1355,3.1332
77095,2.1379,3.1316
77096,2.1355,3.1380
77097,2.1355,3.1501
77098,2.1331,3.1582
77099,2.1331,3.1662
77100,2.1299,3.1823
77101,2.1275,3.1904
77102,2.1315,3.2033
77103,2.1275,3.2065
77104,2.1267,3.2283
77105,2.1275,3.2339
77106,2.1218,3.2444
77107,2.1331,3.2154
77108,2.1275,3.1840
77109,2.1420,3.1541
77110,2.1444,3.1421
77111,2.1492,3.1404
77112,2.1533,3.1421
77113,2.1533,3.1517
77114,2.1541,3.1582
77115,2.1476,3.1678
77116,2.1492,3.1799
77117,2.1508,3.1872
77118,2.1347,3.1952
77119,2.1508,3.2122
77120,2.1444,3.2226
77121,2.1444,3.2412
77122,2.1363,3.2476
77123,2.1508,3.2444
77124,2.1557,3.2291
77125,2.1621,3.1904
77126,2.1645,3.1686
77127,2.1670,3.1606
77128,2.1734,3.1590
77129,2.1718,3.1622
77130,2.1750,3.1727
77131,2.1750,3.1848
77132,2.1750,3.1888
77133,2.1718,3.2009
77134,2.1766,3.2122
77135,2.1662,3.2259
77136,2.1662,3.2404
77137,2.1662,3.2388
77138,2.1637,3.2621
77139,2.1653,3.2694
77140,2.1694,3.2710
77141,2.1750,3.2476
77142,2.1774,3.2049
77143,2.1790,3.1888
77144,2.1790,3.1840
77145,2.1815,3.1832
77146,2.1807,3.1936
77147,2.1782,3.1936
77148,2.1815,3.2025
77149,2.1782,3.2105
77150,2.1766,3.2186
77151,2.1742,3.2355
77152,2.1686,3.2412
77153,2.1686,3.2420
77154,2.1670,3.2662
77155,2.1678,3.2799
77156,2.1670,3.2839
77157,2.1718,3.2718
77158,2.1766,3.2388
77159,2.1774,3.2194
77160,2.1750,3.1904
77161,2.1790,3.1896
77162,2.1790,3.1872
77163,2.1790,3.1936
77164,2.1774,3.2057
77165,2.1774,3.2114
77166,2.1710,3.2194
77167,2.1670,3.2363
77168,2.1645,3.2363
77169,2.1637,3.2428
77170,2.1653,3.2621
77171,2.1613,3.2807
77172,2.1613,3.2855
77173,2.1613,3.2871
77174,2.1621,3.2508
77175,2.1621,3.2114
77176,2.1573,3.1904
77177,2.1525,3.1799
77178,2.1533,3.1630
77179,2.1533,3.1799
77180,2.1533,3.1856
77181,2.1508,3.1743
77182,2.1460,3.1719
77183,2.1444,3.2122
77184,2.1412,3.2291
77185,2.1347,3.2404
77186,2.1355,3.2484
77187,2.1388,3.2412
77188,2.1347,3.2702
77189,2.1315,3.2678
77190,2.1315,3.2412
77191,2.1291,3.1912
77192,2.1226,3.1590
77193,2.1291,3.1453
77194,2.1267,3.1332
77195,2.1170,3.1340
77196,2.1170,3.1066
77197,2.1130,3.1541
77198,2.1146,3.1469
77199,2.1138,3.1541
77200,2.1122,3.1711
77201,2.1017,3.1840
77202,2.1073,3.1936
77203,2.1041,3.1815
77204,2.1025,3.2242
77205,2.1017,3.2484
77206,2.1057,3.2315
77207,2.1097,3.1848
77208,2.1130,3.1566
77209,2.1122,3.1308
77210,2.1146,3.1074
77211,2.1162,3.1114
77212,2.1146,3.1074
77213,2.1154,3.1074
77214,2.1138,3.1211
77215,2.1146,3.1251
77216,2.1146,3.1332
77217,2.1097,3.1485
77218,2.1089,3.1622
77219,2.1089,3.1509
77220,2.1097,3.1985
77221,2.1073,3.2025
77222,2.1130,3.2194
77223,2.1138,3.2065
77224,2.1170,3.1735
77225,2.1226,3.1195
77226,2.1202,3.1114
77227,2.1218,3.1050
77228,2.1275,3.1074
77229,2.1275,3.1074
77230,2.1226,3.1106
77231,2.1226,3.1251
77232,2.1202,3.1332
77233,2.1202,3.1517
77234,2.1202,3.1815
77235,2.1170,3.1848
77236,2.1146,3.1872
77237,2.1130,3.1872
77238,2.1186,3.2283
77239,2.1186,3.2130
77240,2.1259,3.2105
77241,2.1275,3.1944
77242,2.1267,3.1348
77243,2.1283,3.1171
77244,2.1275,3.1090
77245,2.1259,3.1155
77246,2.1275,3.1163
77247,2.1275,3.1316
77248,2.1218,3.1453
77249,2.1275,3.1453
77250,2.1234,3.1614
77251,2.1234,3.1767
77252,2.1234,3.1864
77253,2.1194,3.1985
77254,2.1202,3.2105
77255,2.1210,3.2178
77256,2.1283,3.2307
77257,2.1267,3.2033
77258,2.1283,3.1590
77259,2.1331,3.1332
77260,2.1331,3.1275
77261,2.1307,3.1203
77262,2.1347,3.1582
77263,2.1323,3.1332
77264,2.1323,3.1453
77265,2.1299,3.1533
77266,2.1275,3.1638
77267,2.1275,3.1775
77268,2.1242,3.1920
77269,2.1267,3.2073
77270,2.1226,3.2097
77271,2.1242,3.2218
77272,2.1275,3.2291
77273,2.1275,3.2363
77274,2.1291,3.1807
77275,2.1315,3.1590
77276,2.1331,3.1332
77277,2.1379,3.1308
77278,2.1379,3.1332
77279,2.1388,3.1372
77280,2.1388,3.1509
77281,2.1291,3.1541
77282,2.1331,3.1630
77283,2.1323,3.1775
77284,2.1275,3.1856
77285,2.1291,3.1952
77286,2.1315,3.2097
77287,2.1275,3.2178
77288,2.1267,3.2323
77289,2.1234,3.2379
77290,2.1299,3.2178
77291,2.1363,3.1960
77292,2.1412,3.1574
77293,2.1444,3.1388
77294,2.1484,3.1662
77295,2.1533,3.1461
77296,2.1516,3.1453
77297,2.1573,3.1509
77298,2.1549,3.1630
77299,2.1492,3.1703
77300,2.1516,3.1856
77301,2.1516,3.1952
77302,2.1476,3.2081
77303,2.1484,3.2194
77304,2.1460,3.2347
77305,2.1460,3.2428
77306,2.1492,3.2492
77307,2.1508,3.2420
77308,2.1581,3.2202
77309,2.1662,3.1840
77310,2.1694,3.1711
77311,2.1718,3.1606
77312,2.1742,3.1711
77313,2.1718,3.1743
77314,2.1790,3.1799
77315,2.1750,3.1977
77316,2.1750,3.2057
77317,2.1750,3.2105
77318,2.1702,3.2194
77319,2.1686,3.2347
77320,2.1734,3.2492
77321,2.1702,3.2549
77322,2.1662,3.2670
77323,2.1710,3.2750
77324,2.1710,3.2581
77325,2.1815,3.2251
77326,2.1766,3.2097
77327,2.1799,3.1896
77328,2.1847,3.1920
77329,2.1799,3.1952
77330,2.1815,3.2049
77331,2.1799,3.2105
77332,2.1782,3.2178
77333,2.1815,3.2218
77334,2.1766,3.2371
77335,2.1782,3.2476
77336,2.1766,3.2613
77337,2.1734,3.2750
77338,2.1694,3.2807
77339,2.1734,3.2831
77340,2.1718,3.2968
77341,2.1782,3.2621
77342,2.1790,3.2267
77343,2.1815,3.2033
77344,2.1815,3.2001
77345,2.1831,3.2065
77346,2.1839,3.2105
77347,2.1807,3.2226
77348,2.1807,3.2122
77349,2.1750,3.2242
77350,2.1790,3.2484
77351,2.1750,3.2484
77352,2.1774,3.2597
77353,2.1686,3.2750
77354,2.1734,3.2960
77355,2.1686,3.3000
77356,2.1686,3.2919
77357,2.1686,3.2807
77358,2.1678,3.2492
77359,2.1670,3.2081
77360,2.1621,3.1896
77361,2.1637,3.1848
77362,2.1541,3.1848
77363,2.1557,3.1888
77364,2.1533,3.2057
77365,2.1533,3.2065
77366,2.1484,3.2114
77367,2.1484,3.2275
77368,2.1460,3.2291
77369,2.1388,3.2468
77370,2.1420,3.2613
77371,2.1388,3.2758
77372,2.1396,3.2863
77373,2.1363,3.2549
77374,2.1331,3.2162
77375,2.1291,3.1711
77376,2.1259,3.1574
77377,2.1234,3.1324
77378,2.1202,3.1412
77379,2.1154,3.1404
77380,2.1194,3.1493
77381,2.1146,3.1549
77382,2.1146,3.1646
77383,2.1114,3.1767
77384,2.1130,3.1775
77385,2.1065,3.1985
77386,2.1073,3.2105
77387,2.1057,3.2234
77388,2.1041,3.2251
77389,2.1017,3.2371
77390,2.1146,3.2194
77391,2.1162,3.1799
77392,2.1162,3.1453
77393,2.1186,3.1211
77394,2.1186,3.1082
77395,2.1186,3.1074
77396,2.1178,3.1122
77397,2.1178,3.1195
77398,2.1146,3.1324
77399,2.1146,3.1348
77400,2.1154,3.1533
77401,2.1146,3.1606
77402,2.1138,3.1815
77403,2.1154,3.1904
77404,2.1138,3.2105
77405,2.1122,3.2178
77406,2.1146,3.2178
77407,2.1186,3.1952
77408,2.1267,3.1590
77409,2.1259,3.1211
77410,2.1267,3.1130
77411,2.1275,3.1090
77412,2.1315,3.1082
77413,2.1267,3.1187
77414,2.1275,3.1211
77415,2.1267,3.1356
77416,2.1251,3.1453
77417,2.1267,3.1622
77418,2.1194,3.1662
77419,2.1202,3.1977
77420,2.1259,3.2049
77421,2.1202,3.2162
77422,2.1186,3.2194
77423,2.1242,3.2202
77424,2.1291,3.1912
77425,2.1275,3.1517
77426,2.1315,3.1316
77427,2.1404,3.1203
77428,2.1331,3.1163
77429,2.1291,3.1243
77430,2.1307,3.1316
77431,2.1275,3.1445
77432,2.1275,3.1574
77433,2.1323,3.1703
77434,2.1275,3.1807
77435,2.1267,3.1880
77436,2.1259,3.2033
77437,2.1234,3.2130
77438,2.1226,3.2242
77439,2.1162,3.2347
77440,2.1259,3.2234
77441,2.1307,3.1864
77442,2.1291,3.1646
77443,2.1323,3.1316
77444,2.1355,3.1259
77445,2.1323,3.1356
77446,2.1355,3.1380
77447,2.1323,3.1461
77448,2.1275,3.1590
77449,2.1275,3.1614
77450,2.1283,3.1848
77451,2.1218,3.2033
77452,2.1251,3.2025
77453,2.1267,3.2130
77454,2.1267,3.2323
77455,2.1242,3.2379
77456,2.1251,3.2500
77457,2.1275,3.2226
77458,2.1331,3.1848
77459,2.1379,3.1517
77460,2.1404,3.1421
77461,2.1388,3.1380
77462,2.1420,3.1429
77463,2.1444,3.1485
77464,2.1396,3.1590
77465,2.1388,3.1686
77466,2.1412,3.1856
77467,2.1355,3.1872
77468,2.1299,3.2073
77469,2.1379,3.2025
77470,2.1323,3.2299
77471,2.1347,3.2275
77472,2.1355,3.2484
77473,2.1396,3.2404
77474,2.1420,3.2242
77475,2.1476,3.1848
77476,2.1533,3.1646
77477,2.1460,3.1590
77478,2.1573,3.1590
77479,2.1605,3.1598
77480,2.1573,3.1759
77481,2.1645,3.1848
77482,2.1621,3.1936
77483,2.1533,3.2017
77484,2.1533,3.2081
77485,2.1557,3.2202
77486,2.1533,3.2210
77487,2.1331,3.2492
77488,2.1799,3.2516
77489,2.1557,3.2645
77490,2.1581,3.2621
77491,2.1670,3.2500
77492,2.1710,3.2122
77493,2.1750,3.1920
77494,2.1807,3.1832
77495,2.1799,3.1848
77496,2.1847,3.1920
77497,2.1815,3.2017
77498,2.1815,3.2089
77499,2.1815,3.2114
77500,2.1831,3.2323
77501,2.1823,3.2291
77502,2.1790,3.2468
77503,2.1847,3.2589
77504,2.1774,3.2726
77505,2.1790,3.2766
77506,2.1782,3.2871
77507,2.1815,3.2903
77508,2.1863,3.2549
77509,2.1895,3.2291
77510,2.1911,3.2122
77511,2.1895,3.2097
77512,2.1936,3.2105
77513,2.2048,3.2226
77514,2.1976,3.2194
77515,2.1903,3.2363
77516,2.1895,3.2420
77517,2.1895,3.2476
77518,2.1911,3.2508
77519,2.1774,3.2678
77520,2.1815,3.2774
77521,2.1790,3.2992
77522,2.1790,3.3000
77523,2.1807,3.3000
77524,2.1790,3.2936
77525,2.1790,3.2597
77526,2.1927,3.2315
77527,2.1919,3.2259
77528,2.1936,3.2259
77529,2.1863,3.2251
77530,2.1984,3.2275
77531,2.1871,3.2355
77532,2.1895,3.2379
77533,2.1847,3.2508
77534,2.1790,3.2605
77535,2.1790,3.2742
77536,2.1790,3.2903
77537,2.1790,3.2887
77538,2.1750,3.3000
77539,2.1790,3.3000
77540,2.1790,3.2992
77541,2.1766,3.2766
77542,2.1750,3.2355
77543,2.1710,3.2033
77544,2.1662,3.1960
77545,2.1678,3.1968
77546,2.1645,3.1985
77547,2.1573,3.2065
77548,2.1613,3.2081
77549,2.1565,3.2210
77550,2.1533,3.2339
77551,2.1533,3.2388
77552,2.1508,3.2581
77553,2.1525,3.2726
77554,2.1541,3.2807
77555,2.1404,3.2879
77556,2.1452,3.2871
77557,2.1444,3.2508
77558,2.1420,3.2097
77559,2.1323,3.1711
77560,2.1323,3.1493
77561,2.1283,3.1501
77562,2.1339,3.1445
77563,2.1073,3.1501
77564,2.1267,3.1598
77565,2.1194,3.1662
77566,2.1154,3.1775
77567,2.1170,3.1928
77568,2.1146,3.2025
77569,2.1146,3.2114
77570,2.1017,3.2323
77571,2.1073,3.2420
77572,2.1122,3.2436
77573,2.1138,3.2379
77574,2.1186,3.1993
77575,2.1202,3.1509
77576,2.1226,3.1259
77577,2.1234,3.1066
77578,2.1202,3.0969
77579,2.1242,3.1001
77580,2.1170,3.1114
77581,2.1275,3.1259
77582,2.1194,3.1356
77583,2.1202,3.1509
77584,2.1138,3.1598
77585,2.1178,3.1727
77586,2.1194,3.1920
77587,2.1146,3.2025
77588,2.1033,3.2146
77589,2.1186,3.2210
77590,2.1251,3.1993
77591,2.1275,3.1622
77592,2.1291,3.1187
77593,2.1275,3.0897
77594,2.1251,3.0873
77595,2.1275,3.0840
77596,2.1323,3.0945
77597,2.1259,3.1050
77598,2.1283,3.1082
77599,2.1267,3.1308
77600,2.1226,3.1404
77601,2.1194,3.1493
77602,2.1267,3.1678
77603,2.1251,3.1848
77604,2.1202,3.1896
77605,2.1275,3.2001
77606,2.1355,3.1848
77607,2.1396,3.1549
77608,2.1476,3.1179
77609,2.1476,3.0599
77610,2.1444,3.0582
77611,2.1533,3.0518
77612,2.1533,3.0558
77613,2.1508,3.0663
77614,2.1541,3.0760
77615,2.1516,3.0856
77616,2.1516,3.1034
77617,2.1452,3.1130
77618,2.1476,3.1332
77619,2.1492,3.1477
77620,2.1460,3.1590
77621,2.1412,3.1727
77622,2.1452,3.1848
77623,2.1476,3.1896
77624,2.1525,3.1566
77625,2.1533,3.1219
77626,2.1533,3.0873
77627,2.1549,3.0969
77628,2.1533,3.0816
77629,2.1541,3.0840
77630,2.1549,3.0993
77631,2.1533,3.1090
77632,2.1492,3.1227
77633,2.1516,3.1122
77634,2.1500,3.1533
77635,2.1484,3.1606
77636,2.1444,3.1823
77637,2.1428,3.1985
77638,2.1404,3.2097
77639,2.1412,3.2105
77640,2.1452,3.2049
77641,2.1492,3.1727
77642,2.1533,3.1332
77643,2.1508,3.1130
77644,2.1533,3.1074
77645,2.1508,3.1082
77646,2.1500,3.1203
77647,2.1525,3.1300
77648,2.1476,3.1751
77649,2.1533,3.1509
77650,2.1452,3.1598
77651,2.1460,3.1711
77652,2.1404,3.1864
77653,2.1363,3.2049
77654,2.1396,3.2186
77655,2.1347,3.2186
77656,2.1396,3.2299
77657,2.1428,3.2146
77658,2.1476,3.1775
77659,2.1508,3.1582
77660,2.1525,3.1243
77661,2.1508,3.1195
77662,2.1533,3.1235
77663,2.1573,3.1324
77664,2.1492,3.1453
77665,2.1484,3.1517
77666,2.1396,3.1590
77667,2.1444,3.1775
77668,2.1428,3.1904
77669,2.1428,3.2009
77670,2.1379,3.2162
77671,2.1428,3.2291
77672,2.1379,3.2363
77673,2.1396,3.2339
77674,2.1444,3.2162
77675,2.1492,3.1856
77676,2.1484,3.1501
77677,2.1516,3.1404
77678,2.1492,3.1340
77679,2.1452,3.1453
77680,2.1508,3.1485
77681,2.1500,3.1549
77682,2.1428,3.1614
77683,2.1452,3.1711
77684,2.1444,3.1872
77685,2.1379,3.2146
77686,2.1396,3.2105
77687,2.1396,3.1977
77688,2.1379,3.2363
77689,2.1388,3.2371
77690,2.1396,3.2404
77691,2.1476,3.2105
77692,2.1525,3.1848
77693,2.1476,3.1566
77694,2.1500,3.1445
77695,2.1533,3.1509
77696,2.1508,3.1461
77697,2.1444,3.1590
77698,2.1508,3.1598
77699,2.1492,3.1735
77700,2.1500,3.1904
77701,2.1452,3.2025
77702,2.1428,3.2122
77703,2.1404,3.2251
77704,2.1412,3.2412
77705,2.1412,3.2388
77706,2.1428,3.2597
77707,2.1420,3.2549
77708,2.1525,3.2105
77709,2.1476,3.1832
77710,2.1533,3.1590
77711,2.1508,3.1533
77712,2.1525,3.1590
77713,2.1533,3.1646
77714,2.1508,3.1670
77715,2.1492,3.1848
77716,2.1500,3.1888
77717,2.1484,3.2089
77718,2.1428,3.2097
77719,2.1452,3.2259
77720,2.1428,3.2404
77721,2.1379,3.2460
77722,2.1347,3.2629
77723,2.1420,3.2605
77724,2.1444,3.2339
77725,2.1412,3.1968
77726,2.1484,3.1356
77727,2.1444,3.1590
77728,2.1444,3.1759
77729,2.1404,3.1590
77730,2.1428,3.1711
77731,2.1404,3.1590
77732,2.1331,3.1783
77733,2.1355,3.1960
77734,2.1379,3.2057
77735,2.1331,3.2162
77736,2.1291,3.2315
77737,2.1315,3.2363
77738,2.1283,3.2484
77739,2.1323,3.2758
77740,2.1331,3.2549
77741,2.1363,3.2210
77742,2.1363,3.1848
77743,2.1396,3.1590
77744,2.1412,3.1477
77745,2.1404,3.1251
77746,2.1396,3.1848
77747,2.1363,3.1590
77748,2.1355,3.1759
77749,2.1363,3.1791
77750,2.1412,3.2105
77751,2.1315,3.2057
77752,2.1315,3.2146
77753,2.1283,3.2315
77754,2.1267,3.2363
77755,2.1275,3.2500
77756,2.1283,3.2541
77757,2.1347,3.2444
77758,2.1379,3.2097
77759,2.1428,3.1670
77760,2.1476,3.1348
77761,2.1420,3.1356
77762,2.1444,3.1493
77763,2.1444,3.1533
77764,2.1396,3.1582
77765,2.1444,3.1711
77766,2.1436,3.1735
77767,2.1396,3.1904
77768,2.1371,3.2057
77769,2.1323,3.2122
77770,2.1323,3.2275
77771,2.1396,3.2484
77772,2.1307,3.2500
77773,2.1379,3.2468
77774,2.1444,3.2218
77775,2.1428,3.1832
77776,2.1452,3.1590
77777,2.1492,3.1412
77778,2.1492,3.1437
77779,2.1533,3.1396
77780,2.1508,3.1541
77781,2.1508,3.1582
77782,2.1492,3.1678
77783,2.1492,3.1711
77784,2.1476,3.2025
77785,2.1492,3.2105
77786,2.1396,3.2122
77787,2.1396,3.2363
77788,2.1331,3.2371
77789,2.1420,3.2484
77790,2.1412,3.2452
77791,2.1484,3.2218
77792,2.1476,3.1791
77793,2.1533,3.1582
77794,2.1533,3.1590
77795,2.1525,3.1477
77796,2.1533,3.1590
77797,2.1508,3.1638
77798,2.1525,3.1743
77799,2.1484,3.1848
77800,2.1460,3.2017
77801,2.1396,3.2105
77802,2.1476,3.2226
77803,2.1412,3.2379
77804,2.1412,3.2484
77805,2.1363,3.2525
77806,2.1460,3.2516
77807,2.1476,3.2396
77808,2.1508,3.2081
77809,2.1533,3.1743
77810,2.1500,3.1590
77811,2.1541,3.1566
77812,2.1533,3.1533
77813,2.1533,3.1678
77814,2.1533,3.1678
77815,2.1476,3.1807
77816,2.1516,3.1968
77817,2.1492,3.2065
77818,2.1436,3.2114
77819,2.1412,3.2242
77820,2.1388,3.2404
77821,2.1396,3.2500
77822,2.1396,3.2573
77823,2.1420,3.2605
77824,2.1492,3.2388
77825,2.1533,3.1977
77826,2.1533,3.1775
77827,2.1581,3.1630
77828,2.1589,3.1622
77829,2.1613,3.1727
77830,2.1605,3.1775
77831,2.1629,3.1864
77832,2.1581,3.2081
77833,2.1613,3.2114
77834,2.1565,3.2105
77835,2.1573,3.2347
77836,2.1549,3.2396
77837,2.1533,3.2516
77838,2.1541,3.2589
77839,2.1565,3.2710
77840,2.1653,3.2782
77841,2.1629,3.2484
77842,2.1662,3.2146
77843,2.1750,3.1936
77844,2.1831,3.1896
77845,2.1807,3.1952
77846,2.1815,3.1960
77847,2.1823,3.2114
77848,2.1847,3.2146
77849,2.1839,3.2283
77850,2.1839,3.2412
77851,2.1815,3.2468
77852,2.1790,3.2629
77853,2.1790,3.2710
77854,2.1766,3.2766
77855,2.1799,3.2879
77856,2.1790,3.2936
77857,2.1790,3.3000
77858,2.1879,3.2839
77859,2.1992,3.2444
77860,2.2008,3.2210
77861,2.2056,3.2194
77862,2.2073,3.2234
77863,2.2056,3.2242
77864,2.2048,3.2339
77865,2.2081,3.2581
77866,2.2056,3.2508
77867,2.2024,3.2541
77868,2.2032,3.2742
77869,2.2040,3.2823
77870,2.1968,3.2927
77871,2.2008,3.3000
77872,2.2000,3.3000
77873,2.1976,3.3000
77874,2.2024,3.3000
77875,2.2064,3.2734
77876,2.2089,3.2597
77877,2.2153,3.2379
77878,2.2177,3.2379
77879,2.2169,3.2371
77880,2.2161,3.2492
77881,2.2169,3.2549
77882,2.2105,3.2678
77883,2.2056,3.2694
77884,2.2073,3.2807
77885,2.2048,3.2871
77886,2.2000,3.2968
77887,2.2040,3.3000
77888,2.1992,3.3000
77889,2.2008,3.3000
77890,2.2016,3.3000
77891,2.2073,3.3000
77892,2.2073,3.2758
77893,2.2129,3.2516
77894,2.2161,3.2436
77895,2.2153,3.2404
77896,2.2137,3.2460
77897,2.2129,3.2420
77898,2.2113,3.2525
77899,2.2081,3.2621
77900,2.2064,3.2694
77901,2.2032,3.2831
77902,2.1992,3.2936
77903,2.1968,3.3000
77904,2.2008,3.3000
77905,2.1968,3.3000
77906,2.1919,3.3000
77907,2.1944,3.3000
77908,2.1927,3.2855
77909,2.1936,3.2420
77910,2.1903,3.2259
77911,2.1879,3.2210
77912,2.1823,3.2162
77913,2.1799,3.2138
77914,2.1815,3.2307
77915,2.1750,3.2355
77916,2.1750,3.2371
77917,2.1629,3.2589
77918,2.1702,3.2573
77919,2.1662,3.2790
77920,2.1645,3.2903
77921,2.1541,3.2879
77922,2.1629,3.3000
77923,2.1645,3.3000
77924,2.1557,3.2605
77925,2.1613,3.2081
77926,2.1525,3.1807
77927,2.1436,3.1678
77928,2.1412,3.1646
77929,2.1388,3.1590
77930,2.1396,3.1743
77931,2.1404,3.1848
77932,2.1355,3.1920
77933,2.1283,3.2017
77934,2.1259,3.2073
77935,2.1218,3.2210
77936,2.1218,3.2323
77937,2.1218,3.2388
77938,2.1218,3.2605
77939,2.1186,3.2621
77940,2.1275,3.2476
77941,2.1275,3.2105
77942,2.1299,3.1775
77943,2.1315,3.1469
77944,2.1331,3.1340
77945,2.1331,3.1380
77946,2.1307,3.1372
77947,2.1331,3.1332
77948,2.1315,3.1566
77949,2.1323,3.1622
77950,2.1291,3.1735
77951,2.1267,3.1872
77952,2.1275,3.1993
77953,2.1251,3.2105
77954,2.1251,3.2291
77955,2.1251,3.2363
77956,2.1275,3.2396
77957,2.1218,3.2275
77958,2.1315,3.1968
77959,2.1355,3.1590
77960,2.1420,3.1404
77961,2.1379,3.1332
77962,2.1412,3.1404
77963,2.1412,3.1404
77964,2.1452,3.1533
77965,2.1396,3.1598
77966,2.1379,3.1719
77967,2.1363,3.1848
77968,2.1379,3.1968
77969,2.1363,3.2122
77970,2.1347,3.2218
77971,2.1283,3.2355
77972,2.1138,3.2452
77973,2.1347,3.2541
77974,2.1460,3.2275
77975,2.1428,3.1936
77976,2.1444,3.1598
77977,2.1460,3.1566
77978,2.1549,3.1469
77979,2.1621,3.1574
77980,2.1452,3.1598
77981,2.1420,3.1711
77982,2.1436,3.1815
77983,2.1396,3.1872
77984,2.1379,3.2025
77985,2.1355,3.2146
77986,2.1476,3.2355
77987,2.1291,3.2436
77988,2.1299,3.2541
77989,2.1315,3.2516
77990,2.1363,3.2541
77991,2.1275,3.2283
77992,2.1444,3.1799
77993,2.1460,3.1686
77994,2.1460,3.1590
77995,2.1484,3.1646
77996,2.1476,3.1590
77997,2.1533,3.1719
77998,2.1460,3.1735
77999,2.1363,3.1952
78000,2.1428,3.2001
78001,2.1589,3.2154
78002,2.1404,3.2275
78003,2.1428,3.2444
78004,2.1355,3.2436
78005,2.1396,3.2605
78006,2.1355,3.2629
78007,2.1637,3.2581
78008,2.1452,3.2218
78009,2.1476,3.1880
78010,2.1686,3.1823
78011,2.1589,3.1678
78012,2.1557,3.1727
78013,2.1613,3.1880
78014,2.1605,3.1920
78015,2.1549,3.2009
78016,2.1460,3.2130
78017,2.1637,3.2178
78018,2.1533,3.2323
78019,2.1533,3.2444
78020,2.1533,3.2581
78021,2.1516,3.2678
78022,2.1533,3.2734
78023,2.1533,3.2855
78024,2.1565,3.2613
78025,2.1621,3.2315
78026,2.1742,3.2033
78027,2.1774,3.1904
78028,2.1782,3.1848
78029,2.1662,3.1985
78030,2.1968,3.2033
78031,2.1782,3.2194
78032,2.1799,3.2259
78033,2.1758,3.2291
78034,2.1774,3.2436
78035,2.1911,3.2525
78036,2.1670,3.2702
78037,2.1750,3.2750
78038,2.1750,3.2903
78039,2.1686,3.2968
78040,2.1766,3.2952
78041,2.1807,3.2887
78042,2.1944,3.2573
78043,2.2113,3.2347
78044,2.2008,3.2202
78045,2.2032,3.2283
78046,2.1960,3.2259
78047,2.1895,3.2291
78048,2.2040,3.2355
78049,2.2048,3.2468
78050,2.2016,3.2549
78051,2.2000,3.2637
78052,2.2040,3.2782
78053,2.1976,3.2903
78054,2.1936,3.2936
78055,2.1936,3.3000
78056,2.1944,3.3000
78057,2.1968,3.3000
78058,2.2073,3.2968
78059,2.2089,3.2637
78060,2.1992,3.2516
78061,2.2121,3.2436
78062,2.2048,3.2460
78063,2.2185,3.2500
78064,2.2040,3.2516
78065,2.2169,3.2871
78066,2.2121,3.2718
78067,2.2121,3.2790
78068,2.2097,3.2903
78069,2.2048,3.2871
78070,2.2000,3.3000
78071,2.2016,3.3000
78072,2.1976,3.3000
78073,2.1960,3.3000
78074,2.2016,3.3000
78075,2.2048,3.2919
78076,2.2056,3.2645
78077,2.2097,3.2420
78078,2.2145,3.2468
78079,2.2073,3.2541
78080,2.2105,3.2500
78081,2.2097,3.2597
78082,2.2073,3.2613
78083,2.2032,3.2541
78084,2.2000,3.2831
78085,2.1992,3.2919
78086,2.2016,3.3000
78087,2.1976,3.3000
78088,2.1984,3.3000
78089,2.1960,3.3000
78090,2.1968,3.3000
78091,2.1927,3.3000
78092,2.1936,3.2549
78093,2.1927,3.2363
78094,2.1911,3.2218
78095,2.1879,3.2242
78096,2.1879,3.2194
78097,2.1823,3.2307
78098,2.1815,3.2404
78099,2.1774,3.2444
78100,2.1774,3.2573
78101,2.1750,3.2629
78102,2.1678,3.2758
78103,2.1710,3.2887
78104,2.1645,3.2936
78105,2.1670,3.2944
78106,2.1670,3.3000
78107,2.1637,3.2726
78108,2.1613,3.2412
78109,2.1541,3.1977
78110,2.1541,3.1759
78111,2.1508,3.1630
78112,2.1516,3.1678
78113,2.1484,3.1686
78114,2.1444,3.1840
78115,2.1476,3.1872
78116,2.1299,3.1968
78117,2.1379,3.2114
78118,2.1275,3.2194
78119,2.1355,3.2371
78120,2.1299,3.2533
78121,2.1315,3.2855
78122,2.1178,3.2533
78123,2.1283,3.2283
78124,2.1283,3.1807
78125,2.1275,3.1259
78126,2.1226,3.0889
78127,2.1218,3.0663
78128,2.1202,3.0631
78129,2.1146,3.0647
78130,2.1267,3.0703
78131,2.1146,3.1130
78132,2.1130,3.0953
78133,2.1105,3.1130
78134,2.1105,3.0816
78135,2.1041,3.1106
78136,2.1041,3.1493
78137,2.1041,3.1638
78138,2.1041,3.1799
78139,2.1073,3.1832
78140,2.1105,3.1840
78141,2.1162,3.1566
78142,2.1194,3.0921
78143,2.1162,3.0856
78144,2.1186,3.0768
78145,2.1186,3.0873
78146,2.1251,3.1050
78147,2.1194,3.0969
78148,2.1170,3.1026
78149,2.1162,3.1163
78150,2.1154,3.1243
78151,2.1170,3.1171
78152,2.1146,3.1574
78153,2.1130,3.1727
78154,2.1138,3.1848
78155,2.1114,3.1896
78156,2.1146,3.1904
78157,2.1218,3.1944
78158,2.1242,3.1590
78159,2.1283,3.1001
78160,2.1267,3.1074
78161,2.1323,3.1042
78162,2.1355,3.1050
78163,2.1355,3.1227
78164,2.1299,3.1219
78165,2.1283,3.1332
78166,2.1275,3.1485
78167,2.1299,3.1646
78168,2.1283,3.1727
78169,2.1275,3.1872
78170,2.1234,3.1977
78171,2.1259,3.2081
78172,2.1275,3.2162
78173,2.1259,3.2242
78174,2.1291,3.2105
78175,2.1347,3.1759
78176,2.1404,3.1380
78177,2.1331,3.1179
78178,2.1420,3.1284
78179,2.1420,3.1034
78180,2.1444,3.1412
78181,2.1388,3.1541
78182,2.1379,3.1574
78183,2.1371,3.1711
78184,2.1428,3.1791
78185,2.1331,3.1960
78186,2.1323,3.2057
78187,2.1283,3.2025
78188,2.1291,3.2339
78189,2.1323,3.2379
78190,2.1355,3.2388
78191,2.1404,3.2130
78192,2.1420,3.1727
78193,2.1452,3.1469
78194,2.1428,3.1372
78195,2.1452,3.1566
78196,2.1404,3.1445
78197,2.1484,3.1501
78198,2.1420,3.1598
78199,2.1460,3.1686
78200,2.1412,3.1904
78201,2.1396,3.1968
78202,2.1388,3.2114
78203,2.1379,3.2251
78204,2.1396,3.2533
78205,2.1379,3.2460
78206,2.1331,3.2533
78207,2.1379,3.2484
78208,2.1476,3.2105
78209,2.1460,3.1751
78210,2.1444,3.1582
78211,2.1508,3.1533
78212,2.1492,3.1517
78213,2.1428,3.1582
78214,2.1525,3.1662
78215,2.1484,3.1807
78216,2.1484,3.1888
78217,2.1428,3.1993
78218,2.1444,3.2122
78219,2.1412,3.2194
78220,2.1379,3.2162
78221,2.1444,3.2492
78222,2.1452,3.2533
78223,2.1388,3.2670
78224,2.1444,3.2412
78225,2.1525,3.2105
78226,2.1541,3.1727
78227,2.1549,3.1646
78228,2.1549,3.1695
78229,2.1565,3.1606
78230,2.1581,3.1727
78231,2.1589,3.1743
78232,2.1613,3.1904
78233,2.1589,3.2001
78234,2.1557,3.2081
78235,2.1541,3.2186
78236,2.1533,3.2347
78237,2.1533,3.2452
78238,2.1508,3.2936
78239,2.1525,3.2702
78240,2.1533,3.2734
78241,2.1557,3.2621
78242,2.1637,3.1952
78243,2.1621,3.1848
78244,2.1670,3.1920
78245,2.1694,3.1815
78246,2.1686,3.1832
78247,2.1645,3.1880
78248,2.1670,3.1993
78249,2.1670,3.2105
78250,2.1645,3.2218
78251,2.1621,3.2299
78252,2.1645,3.2468
78253,2.1549,3.2653
78254,2.1541,3.2549
78255,2.1533,3.2879
78256,2.1589,3.2871
78257,2.1613,3.2766
78258,2.1662,3.2549
78259,2.1718,3.2226
78260,2.1686,3.1993
78261,2.1694,3.1936
78262,2.1678,3.1904
78263,2.1718,3.2017
78264,2.1670,3.2154
78265,2.1694,3.2114
78266,2.1686,3.2251
78267,2.1645,3.2444
78268,2.1629,3.2533
78269,2.1613,3.2621
78270,2.1565,3.2653
78271,2.1589,3.2766
78272,2.1533,3.2952
78273,2.1581,3.3000
78274,2.1573,3.2807
78275,2.1565,3.2508
78276,2.1549,3.2154
78277,2.1516,3.2033
78278,2.1492,3.1960
78279,2.1492,3.1928
78280,2.1436,3.2001
78281,2.1452,3.2081
78282,2.1412,3.2138
78283,2.1355,3.2122
78284,2.1347,3.2363
78285,2.1323,3.2371
78286,2.1291,3.2581
78287,2.1275,3.2645
78288,2.1275,3.2758
78289,2.1275,3.2855
78290,2.1226,3.2694
78291,2.1259,3.2307
78292,2.1186,3.1896
78293,2.1186,3.1558
78294,2.1130,3.1549
78295,2.1122,3.1469
78296,2.1081,3.1469
78297,2.1057,3.1517
78298,2.1017,3.1566
78299,2.1017,3.1646
78300,2.1017,3.1743
78301,2.1009,3.1888
78302,2.0993,3.2017
78303,2.0936,3.2114
78304,2.0904,3.2251
78305,2.0904,3.2323
78306,2.0944,3.2412
78307,2.0993,3.2275
78308,2.1017,3.1960
78309,2.1057,3.1501
78310,2.1057,3.1332
78311,2.1073,3.1324
78312,2.1089,3.1316
78313,2.1122,3.1308
78314,2.1138,3.1340
78315,2.1105,3.1485
78316,2.1089,3.1590
78317,2.1073,3.1662
78318,2.1017,3.1848
78319,2.1073,3.1880
78320,2.1057,3.2114
78321,2.1017,3.2178
78322,2.1017,3.2315
78323,2.1073,3.2363
78324,2.1105,3.2178
78325,2.1170,3.1840
78326,2.1218,3.1485
78327,2.1275,3.1541
78328,2.1226,3.1332
78329,2.1259,3.1429
78330,2.1283,3.1461
78331,2.1275,3.1541
78332,2.1259,3.1549
78333,2.1275,3.1759
78334,2.1259,3.1856
78335,2.1234,3.2025
78336,2.1251,3.2049
78337,2.1267,3.2218
78338,2.1202,3.2363
78339,2.1194,3.2452
78340,2.1275,3.2412
78341,2.1275,3.2339
78342,2.1299,3.1823
78343,2.1323,3.1646
78344,2.1307,3.1477
78345,2.1331,3.1549
78346,2.1283,3.1541
78347,2.1315,3.1469
78348,2.1275,3.1678
78349,2.1259,3.1848
78350,2.1267,3.1985
78351,2.1275,3.2025
78352,2.1267,3.2178
78353,2.1218,3.2251
78354,2.1186,3.2363
78355,2.1234,3.2468
78356,2.1242,3.2645
78357,2.1259,3.2492
78358,2.1307,3.2122
78359,2.1315,3.1743
78360,2.1363,3.1638
78361,2.1363,3.1590
78362,2.1331,3.1566
78363,2.1347,3.1541
78364,2.1331,3.1799
78365,2.1315,3.1703
78366,2.1331,3.1952
78367,2.1331,3.1993
78368,2.1275,3.2146
78369,2.1275,3.2315
78370,2.1275,3.2339
78371,2.1283,3.2492
78372,2.1275,3.2605
78373,2.1291,3.2637
78374,2.1283,3.2484
78375,2.1355,3.2097
78376,2.1396,3.1872
78377,2.1484,3.1807
78378,2.1516,3.1832
78379,2.1516,3.1888
78380,2.1484,3.2001
78381,2.1500,3.2065
78382,2.1492,3.2105
78383,2.1404,3.2210
78384,2.1508,3.2315
78385,2.1436,3.2412
78386,2.1420,3.2549
78387,2.1404,3.2653
78388,2.1444,3.2823
78389,2.1420,3.2839
78390,2.1428,3.2847
78391,2.1516,3.2621
78392,2.1573,3.2363
78393,2.1621,3.2146
78394,2.1702,3.2122
78395,2.1718,3.2105
78396,2.1766,3.2130
78397,2.1782,3.2226
78398,2.1774,3.2275
78399,2.1790,3.2452
78400,2.1790,3.2621
78401,2.1742,3.2629
78402,2.1750,3.2774
78403,2.1710,3.2807
78404,2.1718,3.2903
78405,2.1734,3.3000
78406,2.1702,3.3000
78407,2.1799,3.3000
78408,2.1815,3.3000
78409,2.1976,3.2621
78410,2.1960,3.2492
78411,2.2024,3.2404
78412,2.2073,3.2508
78413,2.2064,3.2484
78414,2.2048,3.2492
78415,2.2000,3.2670
78416,2.2089,3.2710
78417,2.2089,3.2863
78418,2.2048,3.2879
78419,2.2048,3.3000
78420,2.2040,3.3000
78421,2.2177,3.3000
78422,2.2008,3.3000
78423,2.2032,3.3000
78424,2.2024,3.3000
78425,2.2137,3.3000
78426,2.2169,3.2903
78427,2.2177,3.2766
78428,2.2218,3.2662
78429,2.2258,3.2702
78430,2.2250,3.2742
78431,2.2201,3.2742
78432,2.2201,3.2895
78433,2.2193,3.2936
78434,2.2145,3.3000
78435,2.2145,3.3000
78436,2.2161,3.3000
78437,2.2064,3.3000
78438,2.2097,3.3000
78439,2.2048,3.3000
78440,2.2073,3.3000
78441,2.2105,3.3000
78442,2.2218,3.3000
78443,2.2177,3.2871
78444,2.2185,3.2774
78445,2.2201,3.2702
78446,2.2234,3.2766
78447,2.2089,3.2839
78448,2.2193,3.2936
78449,2.2161,3.3000
78450,2.2210,3.3000
78451,2.2073,3.3000
78452,2.2137,3.3000
78453,2.2073,3.3000
78454,2.2040,3.3000
78455,2.1976,3.3000
78456,2.2024,3.3000
78457,2.2024,3.3000
78458,2.2032,3.3000
78459,2.1968,3.2782
78460,2.1960,3.2621
78461,2.1927,3.2484
78462,2.1879,3.2468
78463,2.1790,3.2420
78464,2.1831,3.2565
78465,2.1815,3.2621
78466,2.1790,3.2710
78467,2.1790,3.2774
78468,2.1750,3.2968
78469,2.1710,3.3000
78470,2.1710,3.3000
78471,2.1662,3.3000
78472,2.1589,3.3000
78473,2.1653,3.3000
78474,2.1589,3.2919
78475,2.1557,3.2452
78476,2.1525,3.2057
78477,2.1525,3.1968
78478,2.1452,3.1856
78479,2.1412,3.1872
78480,2.1420,3.1888
78481,2.1363,3.1936
78482,2.1323,3.2009
78483,2.1299,3.2105
78484,2.1283,3.2242
78485,2.1363,3.2363
78486,2.1226,3.2460
78487,2.1234,3.2525
78488,2.1202,3.2694
78489,2.1170,3.2734
78490,2.1146,3.2823
78491,2.1275,3.2500
78492,2.1331,3.2049
78493,2.1299,3.1848
78494,2.1331,3.1743
78495,2.1371,3.1767
78496,2.1355,3.1735
78497,2.1379,3.1807
78498,2.1396,3.1848
78499,2.1323,3.1928
78500,2.1379,3.2089
78501,2.1323,3.2146
78502,2.1331,3.2291
78503,2.1323,3.2379
78504,2.1291,3.2613
78505,2.1275,3.2629
78506,2.1275,3.2645
78507,2.1363,3.2645
78508,2.1371,3.2242
78509,2.1452,3.1977
78510,2.1444,3.1832
78511,2.1484,3.1759
78512,2.1492,3.1791
78513,2.1484,3.1791
78514,2.1492,3.1848
78515,2.1508,3.1968
78516,2.1508,3.1993
78517,2.1452,3.2089
78518,2.1476,3.2234
78519,2.1484,3.2371
78520,2.1379,3.2516
78521,2.1396,3.2573
78522,2.1379,3.2726
78523,2.1388,3.2790
78524,2.1468,3.2629
78525,2.1492,3.2242
78526,2.1492,3.2017
78527,2.1476,3.1864
78528,2.1476,3.1848
78529,2.1460,3.1799
78530,2.1476,3.1848
78531,2.1444,3.1977
78532,2.1404,3.2001
78533,2.1379,3.2202
78534,2.1428,3.2162
78535,2.1355,3.2363
78536,2.1331,3.2452
78537,2.1331,3.2621
78538,2.1315,3.2662
78539,2.1315,3.2750
78540,2.1299,3.2823
78541,2.1404,3.2621
78542,2.1500,3.2234
78543,2.1581,3.1993
78544,2.1541,3.1840
78545,2.1533,3.1840
78546,2.1525,3.1904
78547,2.1533,3.2033
78548,2.1508,3.1977
78549,2.1476,3.2105
78550,2.1508,3.2251
78551,2.1508,3.2379
78552,2.1428,3.2404
78553,2.1460,3.2516
78554,2.1452,3.2710
78555,2.1428,3.2823
78556,2.1428,3.2782
78557,2.1476,3.2823
78558,2.1525,3.2573
78559,2.1573,3.2444
78560,2.1613,3.2097
78561,2.1581,3.1936
78562,2.1790,3.2114
78563,2.1629,3.2130
78564,2.1589,3.2259
78565,2.1605,3.2291
78566,2.1589,3.2420
78567,2.1629,3.2484
78568,2.1589,3.2629
78569,2.1573,3.2742
78570,2.1533,3.2863
78571,2.1565,3.2895
78572,2.1549,3.3000
78573,2.1557,3.3000
78574,2.1589,3.2968
78575,2.1662,3.2968
78576,2.1750,3.2484
78577,2.1782,3.2388
78578,2.1879,3.2371
78579,2.1911,3.2404
78580,2.1847,3.2476
78581,2.1911,3.2541
78582,2.1774,3.2597
78583,2.1903,3.2702
78584,2.1944,3.2807
78585,2.1839,3.2903
78586,2.1863,3.3000
78587,2.1823,3.3000
78588,2.1831,3.3000
78589,2.1823,3.3000
78590,2.1839,3.3000
78591,2.1919,3.3000
78592,2.2024,3.2936
78593,2.2048,3.2629
78594,2.2048,3.2492
78595,2.2153,3.2492
78596,2.2201,3.2484
78597,2.2234,3.2541
78598,2.2129,3.2621
78599,2.2226,3.2766
78600,2.2177,3.2871
78601,2.2226,3.2984
78602,2.2145,3.3000
78603,2.2169,3.3000
78604,2.2097,3.3000
78605,2.2121,3.3000
78606,2.2137,3.3000
78607,2.2177,3.3000
78608,2.2218,3.3000
78609,2.2234,3.2605
78610,2.2306,3.2242
78611,2.2282,3.2057
78612,2.2314,3.2105
78613,2.2306,3.2146
78614,2.2306,3.2259
78615,2.2306,3.2323
78616,2.2306,3.2371
78617,2.2258,3.2516
78618,2.2282,3.2645
78619,2.2201,3.2887
78620,2.2185,3.2903
78621,2.2177,3.2968
78622,2.2242,3.3000
78623,2.2306,3.3000
78624,2.2427,3.2694
78625,2.2459,3.2291
78626,2.2484,3.1856
78627,2.2516,3.1670
78628,2.2508,3.1566
78629,2.2492,3.1211
78630,2.2475,3.1574
78631,2.2451,3.1678
78632,2.2475,3.1267
78633,2.2419,3.1864
78634,2.2379,3.1936
78635,2.2355,3.2105
78636,2.2330,3.2178
78637,2.2322,3.2412
78638,2.2419,3.2508
78639,2.2306,3.2734
78640,2.2363,3.2637
78641,2.2395,3.2105
78642,2.2387,3.1968
78643,2.2411,3.1711
78644,2.2395,3.1469
78645,2.2363,3.1421
78646,2.2387,3.1590
78647,2.2322,3.1695
78648,2.2363,3.1840
78649,2.2322,3.1848
78650,2.2242,3.2017
78651,2.2266,3.2114
78652,2.2250,3.2355
78653,2.2201,3.2452
78654,2.2185,3.2613
78655,2.2169,3.2653
78656,2.2161,3.2774
78657,2.2169,3.2702
78658,2.2234,3.2363
78659,2.2218,3.1888
78660,2.2234,3.1686
78661,2.2193,3.1727
78662,2.2177,3.1678
78663,2.2089,3.1695
78664,2.2137,3.1920
78665,2.2073,3.2001
78666,2.2097,3.2065
78667,2.2064,3.2347
78668,2.2032,3.2291
78669,2.2032,3.2404
78670,2.2000,3.2194
78671,2.2000,3.2645
78672,2.1960,3.2742
78673,2.1936,3.2879
78674,2.2024,3.2734
78675,2.2016,3.2323
78676,2.2048,3.2347
78677,2.2048,3.1856
78678,2.2056,3.1759
78679,2.2048,3.1936
78680,2.2040,3.1896
78681,2.2048,3.1985
78682,2.2008,3.2105
78683,2.2008,3.2138
78684,2.1960,3.2291
78685,2.1968,3.2420
78686,2.1903,3.2605
78687,2.1911,3.2605
78688,2.1911,3.2766
78689,2.1847,3.2863
78690,2.1863,3.2919
78691,2.1903,3.2694
78692,2.1927,3.2242
78693,2.1968,3.1993
78694,2.1992,3.1888
