time_ms,ch1_v,ch2_v
86463,2.36,1.98
86463,2.36,1.98
86464,2.35,1.98
86464,2.37,1.98
86464,2.36,1.98
86465,2.36,1.98
86465,2.37,1.98
86465,2.36,1.98
86466,2.37,1.98
86466,2.36,1.98
86466,2.37,1.98
86466,2.37,1.98
86467,2.36,1.98
86467,2.34,1.98
86467,2.36,1.98
86468,2.35,1.98
86468,2.35,1.97
86468,2.35,1.98
86469,2.35,1.98
86469,2.35,1.98
86469,2.35,1.99
86469,2.36,1.99
86470,2.35,1.99
86470,2.36,1.99
86470,2.36,1.99
86471,2.36,2.00
86471,2.37,2.00
86471,2.36,1.99
86472,2.36,2.00
86472,2.37,2.00
86472,2.36,1.99
86473,2.37,2.00
86473,2.36,1.99
86473,2.36,2.00
86473,2.36,1.99
86474,2.36,2.00
86474,2.35,2.00
86474,2.35,2.00
86475,2.35,1.99
86475,2.35,2.00
86475,2.35,2.00
86476,2.34,1.99
86476,2.35,2.00
86476,2.35,2.00
86476,2.35,2.00
86477,2.36,2.00
86477,2.36,1.99
86477,2.36,2.00
86478,2.37,2.00
86478,2.37,1.99
86478,2.35,2.00
86479,2.37,1.99
86479,2.36,2.00
86479,2.36,2.00
86479,2.36,2.00
86480,2.36,2.00
86480,2.36,1.99
86480,2.36,2.00
86481,2.36,1.99
86481,2.35,1.99
86481,2.35,2.00
86482,2.35,1.99
86482,2.35,1.99
86482,2.35,1.99
86482,2.35,1.99
86483,2.36,2.00
86483,2.35,1.99
86483,2.35,1.99
86484,2.35,1.99
86484,2.35,1.99
86484,2.35,1.99
86485,2.35,1.99
86485,2.35,1.99
86485,2.35,1.99
86485,2.35,1.99
86486,2.35,1.98
86486,2.35,1.99
86486,2.35,1.99
86487,2.35,1.99
86487,2.36,1.99
86487,2.36,1.99
86488,2.36,1.99
86488,2.36,1.99
86488,2.37,1.99
86489,2.37,1.99
86489,2.36,1.99
86489,2.37,1.98
86489,2.37,1.98
86490,2.36,1.99
86490,2.37,1.98
86490,2.36,1.99
86491,2.36,1.98
86491,2.36,1.99
86491,2.35,1.98
86492,2.36,1.99
86492,2.36,1.99
86492,2.36,1.99
86492,2.36,1.98
86493,2.36,1.99
86493,2.36,1.99
86493,2.37,1.99
86494,2.37,1.98
86494,2.37,1.98
86494,2.39,1.98
86495,2.37,1.98
86495,2.37,1.98
86495,2.37,1.98
86495,2.37,1.98
86496,2.36,1.98
86496,2.36,1.98
86496,2.36,1.98
86497,2.36,1.98
86497,2.36,1.98
86497,2.36,1.98
86498,2.37,1.98
86498,2.36,1.98
86498,2.37,1.98
86498,2.37,1.98
86499,2.37,1.98
86499,2.37,1.98
86499,2.37,1.98
86500,2.37,1.98
86500,2.36,1.98
86500,2.36,1.98
86501,2.36,1.98
86501,2.36,1.98
86501,2.36,1.97
86501,2.37,1.98
86502,2.35,1.98
86502,2.36,1.98
86502,2.36,1.99
86503,2.36,1.98
86503,2.36,1.99
86503,2.36,1.99
86504,2.36,2.00
86504,2.37,2.00
86504,2.37,2.00
86505,2.37,2.00
86505,2.37,2.00
86505,2.37,2.00
86505,2.37,2.00
86506,2.37,2.00
86506,2.37,2.00
86506,2.36,2.00
86507,2.36,2.00
86507,2.36,2.00
86507,2.35,2.00
86508,2.35,2.00
86508,2.35,2.00
86508,2.35,2.00
86508,2.36,2.00
86509,2.34,2.00
86509,2.35,2.00
86509,2.35,2.00
86510,2.35,2.00
86510,2.35,2.00
86510,2.36,2.00
86511,2.36,2.00
86511,2.36,2.00
86511,2.36,2.00
86511,2.36,2.00
86512,2.37,2.00
86512,2.36,2.00
86512,2.36,2.00
86513,2.36,1.99
86513,2.36,2.00
86513,2.35,2.00
86514,2.35,2.00
86514,2.35,2.00
86514,2.36,2.00
86514,2.34,2.00
86515,2.34,1.99
86515,2.34,1.99
86515,2.35,2.00
86516,2.35,2.00
86516,2.35,1.99
86516,2.35,2.00
86517,2.35,1.99
86517,2.35,1.99
86517,2.35,1.99
86517,2.35,2.00
86518,2.35,2.00
86518,2.35,1.99
86518,2.34,2.00
86519,2.33,1.99
86519,2.34,1.99
86519,2.34,1.99
86520,2.35,1.99
86520,2.34,1.99
86520,2.35,1.99
86521,2.35,2.00
86521,2.36,1.99
86521,2.36,1.99
86521,2.36,1.99
86522,2.36,1.99
86522,2.36,1.99
86522,2.36,1.99
86523,2.36,1.99
86523,2.36,1.99
86523,2.36,1.99
86524,2.36,1.99
86524,2.36,1.98
86524,2.36,1.99
86524,2.35,1.99
86525,2.35,1.99
86525,2.36,1.99
86525,2.35,1.99
86526,2.36,1.99
86526,2.36,1.99
86526,2.36,1.98
86527,2.36,1.98
86527,2.36,1.99
86527,2.37,1.99
86527,2.36,1.98
86528,2.37,1.98
86528,2.37,1.99
86528,2.36,1.98
86529,2.36,1.99
86529,2.37,1.98
86529,2.36,1.99
86530,2.36,1.98
86530,2.36,1.98
86530,2.36,1.98
86530,2.36,1.98
86531,2.36,1.98
86531,2.36,1.98
86531,2.36,1.98
86532,2.36,1.98
86532,2.36,1.98
86532,2.36,1.98
86533,2.36,1.98
86533,2.36,1.98
86533,2.37,1.98
86534,2.36,1.98
86534,2.36,1.98
86534,2.36,1.98
86534,2.36,1.98
86535,2.36,1.98
86535,2.37,1.98
86535,2.35,1.98
86536,2.36,1.98
86536,2.36,1.98
86536,2.35,1.99
86537,2.35,1.98
86537,2.37,1.99
86537,2.36,1.99
86537,2.37,1.99
86538,2.37,1.99
86538,2.37,1.99
86538,2.37,1.99
86539,2.37,1.99
86539,2.37,1.99
86539,2.36,1.99
86540,2.37,1.99
86540,2.36,1.99
86540,2.36,1.99
86540,2.36,1.99
86541,2.36,1.99
86541,2.36,1.99
86541,2.35,1.99
86542,2.35,1.99
86542,2.35,1.99
86542,2.35,1.99
86543,2.36,1.99
86543,2.36,1.99
86543,2.36,1.99
86543,2.37,1.99
86544,2.36,1.99
86544,2.36,1.99
86544,2.37,1.99
86545,2.37,1.99
86545,2.37,1.99
86545,2.36,1.99
86546,2.37,1.99
86546,2.37,1.99
86546,2.36,1.99
86547,2.36,1.99
86547,2.36,1.99
86547,2.36,1.99
86547,2.36,1.99
86548,2.36,1.98
86548,2.35,1.98
86548,2.35,1.99
86549,2.35,1.98
86549,2.36,1.99
86549,2.35,1.99
86550,2.36,1.99
86550,2.36,1.99
86550,2.36,1.99
86550,2.36,1.99
86551,2.36,1.99
86551,2.36,1.98
86551,2.36,1.98
86552,2.35,1.99
86552,2.35,1.98
86552,2.35,1.99
86553,2.35,1.98
86553,2.36,1.99
86553,2.36,1.99
86553,2.36,1.98
86554,2.36,1.98
86554,2.36,1.98
86554,2.37,1.98
86555,2.37,1.98
86555,2.37,1.98
86555,2.37,1.98
86556,2.37,1.98
86556,2.37,1.98
86556,2.37,1.98
86556,2.36,1.98
86557,2.37,1.98
86557,2.37,1.98
86557,2.36,1.99
86558,2.37,1.98
86558,2.36,1.98
86558,2.36,1.98
86559,2.37,1.98
86559,2.37,1.98
86559,2.37,1.98
86559,2.38,1.98
86560,2.38,1.98
86560,2.37,1.98
86560,2.38,1.98
86561,2.38,1.97
86561,2.38,1.98
86561,2.37,1.98
86562,2.37,1.98
86562,2.37,1.98
86562,2.37,1.98
86563,2.38,1.98
86563,2.37,1.98
86563,2.37,1.98
86563,2.38,1.98
86564,2.37,1.98
86564,2.37,1.98
86564,2.38,1.98
86565,2.38,1.98
86565,2.37,1.98
86565,2.38,1.98
86566,2.37,1.97
86566,2.37,1.98
86566,2.37,1.98
86566,2.36,1.97
86567,2.37,1.97
86567,2.36,1.98
86567,2.36,1.97
86568,2.36,1.97
86568,2.36,1.98
86568,2.36,1.98
86569,2.36,1.99
86569,2.36,1.99
86569,2.36,2.00
86569,2.36,2.00
86570,2.37,2.00
86570,2.37,2.00
86570,2.37,2.00
86571,2.36,2.00
86571,2.37,2.00
86571,2.37,2.00
86572,2.37,2.00
86572,2.37,2.00
86572,2.36,2.00
86572,2.36,2.00
86573,2.36,2.01
86573,2.36,2.01
86573,2.36,2.01
86574,2.35,2.01
86574,2.35,2.00
86574,2.33,2.00
86575,2.34,2.00
86575,2.34,2.01
86575,2.34,2.00
86576,2.35,2.01
86576,2.34,2.01
86576,2.35,2.00
86576,2.33,2.01
86577,2.35,2.01
86577,2.36,2.01
86577,2.36,2.01
86578,2.36,2.01
86578,2.36,2.00
86578,2.35,2.00
86579,2.35,2.00
86579,2.36,2.01
86579,2.35,2.00
86579,2.35,2.00
86580,2.34,2.00
86580,2.34,2.01
86580,2.34,2.00
86581,2.34,2.00
86581,2.33,2.00
86581,2.34,2.00
86582,2.34,2.00
86582,2.32,2.00
86582,2.34,2.00
86582,2.34,2.00
86583,2.34,2.00
86583,2.35,2.00
86583,2.34,2.00
86584,2.35,2.00
86584,2.34,2.00
86584,2.34,2.00
86585,2.35,2.00
86585,2.34,2.00
86585,2.33,2.00
86585,2.33,2.00
86586,2.33,2.00
86586,2.34,2.00
86586,2.33,2.00
86587,2.33,2.00
86587,2.34,1.99
86587,2.34,2.00
86588,2.35,2.00
86588,2.35,1.99
86588,2.36,2.00
86588,2.36,2.00
86589,2.35,2.00
86589,2.36,2.00
86589,2.35,1.99
86590,2.36,2.00
86590,2.35,2.00
86590,2.35,1.99
86591,2.35,1.99
86591,2.35,1.99
86591,2.34,1.99
86592,2.34,1.99
86592,2.34,1.99
86592,2.33,1.99
86592,2.34,1.99
86593,2.35,1.99
86593,2.35,1.99
86593,2.36,2.00
86594,2.36,1.99
86594,2.36,1.99
86594,2.36,1.99
86595,2.36,1.99
86595,2.35,1.99
86595,2.36,1.99
86595,2.35,1.99
86596,2.35,1.99
86596,2.35,1.99
86596,2.35,1.99
86597,2.35,1.99
86597,2.35,1.99
86597,2.35,1.98
86598,2.35,1.99
86598,2.35,1.99
86598,2.36,1.99
86598,2.35,1.99
86599,2.35,1.99
86599,2.35,1.98
86599,2.35,1.98
86600,2.36,1.99
86600,2.35,1.98
86600,2.34,1.98
86601,2.35,1.98
86601,2.35,1.98
86601,2.34,1.98
86601,2.35,1.98
86602,2.34,1.98
86602,2.34,1.98
86602,2.35,1.98
86603,2.34,1.98
86603,2.35,1.99
86603,2.34,1.98
86604,2.35,1.99
86604,2.35,1.99
86604,2.36,1.98
86604,2.36,1.99
86605,2.36,1.99
86605,2.35,1.99
86605,2.36,1.99
86606,2.36,1.99
86606,2.36,1.99
86606,2.36,1.99
86607,2.35,1.99
86607,2.35,1.99
86607,2.35,1.99
86608,2.35,1.99
86608,2.33,1.99
86608,2.35,1.99
86608,2.35,1.98
86609,2.35,1.99
86609,2.35,1.99
86609,2.35,1.99
86610,2.36,1.99
86610,2.36,1.99
86610,2.36,1.98
86611,2.36,1.99
86611,2.35,1.99
86611,2.36,1.99
86611,2.36,1.98
86612,2.36,1.99
86612,2.36,1.99
86612,2.36,1.98
86613,2.35,1.98
86613,2.35,1.99
86613,2.35,1.98
86614,2.35,1.98
86614,2.35,1.98
86614,2.35,1.98
86614,2.36,1.98
86615,2.35,1.99
86615,2.36,1.99
86615,2.36,1.99
86616,2.35,1.98
86616,2.36,1.98
86616,2.36,1.98
86617,2.36,1.98
86617,2.35,1.98
86617,2.35,1.98
86617,2.35,1.98
86618,2.35,1.98
86618,2.34,1.98
86618,2.34,1.98
86619,2.34,1.98
86619,2.34,1.98
86619,2.34,1.98
86620,2.34,1.99
86620,2.35,1.99
86620,2.35,2.00
86620,2.35,2.00
86621,2.35,2.00
86621,2.36,1.99
86621,2.36,2.00
86622,2.35,2.00
86622,2.36,1.99
86622,2.35,2.00
86623,2.35,2.00
86623,2.35,2.00
86623,2.35,2.00
86624,2.35,2.00
86624,2.35,2.00
86624,2.34,2.00
86624,2.34,2.00
86625,2.33,2.00
86625,2.33,2.00
86625,2.33,2.00
86626,2.34,2.00
86626,2.33,2.00
86626,2.34,2.00
86627,2.34,2.00
86627,2.34,2.00
86627,2.35,2.00
86627,2.35,2.00
86628,2.35,2.00
86628,2.35,2.00
86628,2.35,1.99
86629,2.35,2.00
86629,2.35,2.00
86629,2.35,1.99
86630,2.35,2.00
86630,2.34,2.00
86630,2.35,1.99
86630,2.33,1.99
86631,2.33,1.99
86631,2.33,1.99
86631,2.34,2.00
86632,2.33,2.00
86632,2.33,1.99
86632,2.33,1.99
86633,2.33,1.99
86633,2.33,1.99
86633,2.33,1.99
86633,2.33,1.99
86634,2.34,1.99
86634,2.33,1.99
86634,2.34,1.99
86635,2.33,1.99
86635,2.33,1.99
86635,2.33,1.99
86636,2.33,1.99
86636,2.33,1.99
86636,2.33,1.99
86636,2.33,1.99
86637,2.33,1.99
86637,2.33,1.99
86637,2.34,1.99
86638,2.35,1.99
86638,2.35,1.99
86638,2.34,1.98
86639,2.35,1.99
86639,2.35,1.99
86639,2.34,1.99
86640,2.35,1.98
86640,2.35,1.99
86640,2.34,1.99
86640,2.34,1.98
86641,2.33,1.99
86641,2.34,1.98
86641,2.34,1.98
86642,2.34,1.98
86642,2.34,1.98
86642,2.34,1.99
86643,2.34,1.99
86643,2.34,1.98
86643,2.35,1.98
86643,2.35,1.98
86644,2.35,1.98
86644,2.34,1.98
86644,2.35,1.98
86645,2.35,1.98
86645,2.35,1.98
86645,2.35,1.98
86646,2.35,1.98
86646,2.35,1.98
86646,2.34,1.98
86646,2.34,1.98
86647,2.34,1.98
86647,2.34,1.98
86647,2.34,1.98
86648,2.34,1.98
86648,2.34,1.98
86648,2.34,1.98
86649,2.35,1.98
86649,2.35,1.98
86649,2.35,1.98
86649,2.35,1.98
86650,2.35,1.97
86650,2.35,1.97
86650,2.35,1.98
86651,2.35,1.98
86651,2.35,1.97
86651,2.34,1.97
86652,2.34,1.98
86652,2.33,1.97
86652,2.33,1.98
86653,2.34,1.98
86653,2.34,1.98
86653,2.34,1.98
86653,2.35,1.98
86654,2.34,1.98
86654,2.35,1.98
86654,2.35,1.98
86655,2.36,1.98
86655,2.36,1.98
86655,2.36,1.99
86656,2.36,1.98
86656,2.36,1.98
86656,2.36,1.99
86656,2.35,1.98
86657,2.35,1.98
86657,2.35,1.98
86657,2.34,1.99
86658,2.34,1.99
86658,2.34,1.98
86658,2.34,1.98
86659,2.34,1.99
86659,2.34,1.98
86659,2.34,1.99
86659,2.34,1.98
86660,2.34,1.98
86660,2.35,1.98
86660,2.34,1.99
86661,2.36,1.99
86661,2.35,1.99
86661,2.36,1.98
86662,2.36,1.99
86662,2.35,1.98
86662,2.36,1.98
86662,2.36,1.98
86663,2.35,1.99
86663,2.36,1.98
86663,2.35,1.98
86664,2.35,1.98
86664,2.34,1.98
86664,2.34,1.98
86665,2.35,1.98
86665,2.34,1.98
86665,2.35,1.98
86666,2.35,1.98
86666,2.35,1.98
86666,2.35,1.98
86666,2.35,1.98
86667,2.35,1.98
86667,2.35,1.98
86667,2.35,1.98
86668,2.34,1.98
86668,2.34,1.97
86668,2.34,1.98
86669,2.34,1.98
86669,2.34,1.97
86669,2.34,1.98
86669,2.34,1.98
86670,2.35,1.98
86670,2.34,1.98
86670,2.35,1.98
86671,2.36,1.98
86671,2.36,1.98
86671,2.36,1.98
86672,2.36,1.98
86672,2.36,1.98
86672,2.36,1.98
86672,2.36,1.98
86673,2.36,1.98
86673,2.36,1.98
86673,2.36,1.98
86674,2.35,1.98
86674,2.36,1.98
86674,2.35,1.98
86675,2.36,1.97
86675,2.35,1.98
86675,2.35,1.98
86675,2.35,1.98
86676,2.36,1.98
86676,2.36,1.98
86676,2.36,1.98
86677,2.36,1.98
86677,2.36,1.98
86677,2.37,1.98
86678,2.36,1.98
86678,2.37,1.98
86678,2.37,1.98
86678,2.36,1.97
86679,2.37,1.98
86679,2.37,1.98
86679,2.37,1.97
86680,2.36,1.97
86680,2.36,1.97
86680,2.36,1.98
86681,2.36,1.98
86681,2.36,1.98
86681,2.36,1.97
86682,2.36,1.98
86682,2.38,1.97
86682,2.37,1.97
86682,2.36,1.97
86683,2.37,1.97
86683,2.36,1.98
86683,2.36,1.98
86684,2.36,1.97
86684,2.36,1.98
86684,2.36,1.97
86685,2.36,1.97
86685,2.36,1.97
86685,2.35,1.97
86685,2.36,1.97
86686,2.35,1.98
86686,2.36,1.98
86686,2.36,1.98
86687,2.39,1.98
86687,2.37,1.98
86687,2.37,1.98
86688,2.37,1.99
86688,2.37,1.99
86688,2.37,1.99
86688,2.38,1.98
86689,2.37,1.99
86689,2.37,1.99
86689,2.36,1.98
86690,2.37,1.98
86690,2.37,1.99
86690,2.36,1.99
86691,2.36,1.99
86691,2.36,1.99
86691,2.35,1.98
86691,2.36,1.99
86692,2.36,1.99
86692,2.36,1.99
86692,2.36,1.99
86693,2.37,1.99
86693,2.34,1.99
86693,2.36,1.99
86694,2.37,1.99
86694,2.37,1.99
86694,2.37,1.99
86695,2.37,1.99
86695,2.37,1.99
86695,2.37,1.99
86695,2.37,1.99
86696,2.38,1.99
86696,2.36,1.98
86696,2.36,1.99
86697,2.36,1.99
86697,2.36,1.99
86697,2.36,1.99
86698,2.36,1.98
86698,2.36,1.99
86698,2.36,1.99
86698,2.36,1.99
86699,2.37,1.99
86699,2.36,1.99
86699,2.37,1.98
86700,2.36,1.99
86700,2.37,1.99
86700,2.36,1.98
86701,2.37,1.98
86701,2.36,1.98
86701,2.36,1.98
86701,2.36,1.98
86702,2.36,1.98
86702,2.35,1.98
86702,2.36,1.98
86703,2.36,1.99
86703,2.36,1.99
86703,2.36,1.99
86704,2.36,1.99
86704,2.37,1.99
86704,2.37,1.99
86704,2.37,1.99
86705,2.38,1.99
86705,2.38,1.99
86705,2.38,1.99
86706,2.38,1.99
86706,2.38,1.99
86706,2.37,1.99
86707,2.37,1.99
86707,2.37,1.99
86707,2.37,1.98
86708,2.37,1.99
86708,2.36,1.98
86708,2.36,1.99
86708,2.37,1.99
86709,2.36,1.99
86709,2.37,1.99
86709,2.37,1.99
86710,2.37,1.99
86710,2.37,1.99
86710,2.38,1.99
86711,2.38,1.98
86711,2.38,1.99
86711,2.38,1.98
86711,2.39,1.99
86712,2.38,1.99
86712,2.36,1.98
86712,2.37,1.99
86713,2.38,1.99
86713,2.37,1.98
86713,2.37,1.99
86714,2.37,1.98
86714,2.37,1.99
86714,2.36,1.98
86714,2.37,1.98
86715,2.38,1.98
86715,2.37,1.98
86715,2.39,1.98
86716,2.37,1.98
86716,2.38,1.98
86716,2.37,1.98
86717,2.37,1.98
86717,2.37,1.98
86717,2.37,1.98
86717,2.37,1.99
86718,2.37,1.98
86718,2.36,1.98
86718,2.36,1.98
86719,2.36,1.98
86719,2.36,1.98
86719,2.36,1.98
86720,2.37,1.99
86720,2.37,1.99
86720,2.37,2.00
86720,2.37,1.99
86721,2.37,1.99
86721,2.40,1.99
86721,2.38,2.00
86722,2.38,2.00
86722,2.38,2.00
86722,2.37,2.00
86723,2.39,2.00
86723,2.37,2.00
86723,2.38,2.00
86724,2.37,2.00
86724,2.37,1.99
86724,2.36,2.00
86724,2.36,1.99
86725,2.36,2.00
86725,2.35,2.00
86725,2.36,2.00
86726,2.37,1.99
86726,2.36,2.00
86726,2.36,2.00
86727,2.37,2.00
86727,2.37,1.99
86727,2.37,2.00
86727,2.38,2.00
86728,2.38,2.00
86728,2.38,2.00
86728,2.38,1.99
86729,2.37,2.00
86729,2.38,2.00
86729,2.37,1.99
86730,2.37,1.99
86730,2.38,2.00
86730,2.37,1.99
86730,2.37,1.99
86731,2.36,1.99
86731,2.36,1.99
86731,2.36,1.99
86732,2.37,1.99
86732,2.37,1.99
86732,2.36,1.99
86733,2.37,1.99
86733,2.37,1.99
86733,2.37,1.99
86733,2.37,1.98
86734,2.36,1.99
86734,2.37,1.99
86734,2.37,1.99
86735,2.36,1.99
86735,2.36,1.99
86735,2.36,1.99
86736,2.36,1.99
86736,2.36,1.99
86736,2.36,1.99
86737,2.36,1.99
86737,2.37,1.99
86737,2.37,2.00
86737,2.38,2.00
86738,2.37,1.99
86738,2.38,1.99
86738,2.38,1.99
86739,2.38,1.99
86739,2.38,1.99
86739,2.38,1.99
86740,2.38,1.99
86740,2.37,2.00
86740,2.37,2.00
86740,2.37,1.99
86741,2.36,1.99
86741,2.37,1.99
86741,2.37,1.99
86742,2.37,1.99
86742,2.37,2.00
86742,2.37,1.99
86743,2.37,1.99
86743,2.37,1.99
86743,2.37,1.99
86743,2.38,2.00
86744,2.38,1.99
86744,2.38,1.99
86744,2.38,1.99
86745,2.38,1.99
86745,2.38,1.99
86745,2.38,1.99
86746,2.38,1.99
86746,2.37,1.99
86746,2.37,1.99
86746,2.37,1.99
86747,2.37,1.99
86747,2.37,1.98
86747,2.37,1.99
86748,2.39,1.98
86748,2.38,1.99
86748,2.38,1.98
86749,2.38,1.98
86749,2.38,1.98
86749,2.39,1.99
86749,2.38,1.99
86750,2.38,1.99
86750,2.37,1.98
86750,2.37,1.98
86751,2.37,1.99
86751,2.37,1.98
86751,2.37,1.98
86752,2.37,1.98
86752,2.36,1.99
86752,2.36,1.99
86753,2.36,1.99
86753,2.37,2.00
88463,2.42,2.05
88463,2.42,2.05
88463,2.42,2.05
88463,2.42,2.05
88463,2.42,2.05
88463,2.42,2.05
88463,2.41,2.05
88464,2.41,2.05
88464,2.41,2.05
88464,2.40,2.05
88465,2.40,2.05
88465,2.41,2.04
88465,2.41,2.05
88466,2.40,2.04
88466,2.41,2.05
88466,2.41,2.05
88466,2.40,2.04
88467,2.41,2.05
88467,2.41,2.04
88467,2.41,2.04
88468,2.40,2.04
88468,2.40,2.04
88468,2.40,2.04
88469,2.40,2.04
88469,2.40,2.03
88469,2.39,2.03
88469,2.39,2.04
88470,2.39,2.03
88470,2.39,2.03
88470,2.39,2.03
88471,2.39,2.03
88471,2.40,2.03
88471,2.40,2.03
88472,2.40,2.03
88472,2.41,2.03
88472,2.41,2.03
88473,2.41,2.03
88473,2.40,2.03
88473,2.41,2.03
88473,2.41,2.03
88474,2.41,2.02
88474,2.40,2.02
88474,2.41,2.02
88475,2.40,2.02
88475,2.40,2.03
88475,2.40,2.02
88476,2.39,2.02
88476,2.40,2.02
88476,2.37,2.02
88476,2.41,2.02
88477,2.39,2.02
88477,2.40,2.02
88477,2.41,2.02
88478,2.41,2.02
88478,2.40,2.02
88478,2.41,2.02
88479,2.41,2.02
88479,2.41,2.01
88479,2.41,2.02
88479,2.41,2.01
88480,2.41,2.02
88480,2.40,2.01
88480,2.40,2.01
88481,2.40,2.01
88481,2.40,2.01
88481,2.41,2.01
88482,2.40,2.01
88482,2.40,2.01
88482,2.40,2.01
88482,2.40,2.00
88483,2.40,2.01
88483,2.40,2.01
88483,2.41,2.01
88484,2.41,2.00
88484,2.40,2.01
88484,2.40,2.01
88485,2.40,2.01
88485,2.40,2.00
88485,2.40,2.00
88485,2.39,2.00
88486,2.39,2.00
88486,2.39,2.00
88486,2.39,2.00
88487,2.39,2.00
88487,2.39,2.01
88487,2.39,2.01
88488,2.39,2.01
88488,2.39,2.01
88488,2.40,2.02
88489,2.40,2.02
88489,2.40,2.01
88489,2.40,2.02
88489,2.40,2.02
88490,2.40,2.01
88490,2.40,2.02
88490,2.40,2.02
88491,2.40,2.02
88491,2.39,2.02
88491,2.39,2.02
88492,2.39,2.02
88492,2.38,2.01
88492,2.39,2.02
88492,2.38,2.02
88493,2.38,2.02
88493,2.37,2.01
88493,2.38,2.02
88494,2.38,2.01
88494,2.38,2.02
88494,2.39,2.02
88495,2.39,2.01
88495,2.39,2.01
88495,2.39,2.02
88495,2.40,2.01
88496,2.40,2.01
88496,2.40,2.01
88496,2.39,2.01
88497,2.40,2.01
88497,2.39,2.02
88497,2.39,2.01
88498,2.39,2.01
88498,2.38,2.02
88498,2.38,2.01
88498,2.37,2.01
88499,2.37,2.01
88499,2.38,2.01
88499,2.38,2.01
88500,2.38,2.01
88500,2.38,2.01
88500,2.38,2.01
88501,2.38,2.01
88501,2.38,2.00
88501,2.38,2.00
88501,2.38,2.00
88502,2.38,2.01
88502,2.37,2.00
88502,2.37,2.01
88503,2.37,2.01
88503,2.37,2.00
88503,2.37,2.01
88504,2.38,2.01
88504,2.38,2.00
88504,2.37,2.00
88505,2.38,2.00
88505,2.39,2.00
88505,2.39,2.00
88505,2.39,2.00
88506,2.39,2.00
88506,2.39,2.00
88506,2.40,2.00
88507,2.39,2.00
88507,2.39,2.00
88507,2.40,2.00
88508,2.39,2.00
88508,2.39,2.00
88508,2.39,2.00
88508,2.39,2.00
88509,2.39,2.00
88509,2.39,1.99
88509,2.38,2.00
88510,2.39,2.00
88510,2.39,2.00
88510,2.39,2.00
88511,2.39,2.00
88511,2.40,2.00
88511,2.40,2.00
88511,2.40,1.99
88512,2.39,2.00
88512,2.40,2.00
88512,2.40,2.00
88513,2.40,2.00
88513,2.39,1.99
88513,2.39,1.99
88514,2.39,1.99
88514,2.39,1.99
88514,2.40,1.99
88514,2.40,1.99
88515,2.40,1.99
88515,2.40,1.99
88515,2.41,1.99
88516,2.41,1.99
88516,2.40,2.00
88516,2.40,1.99
88517,2.40,1.99
88517,2.40,1.99
88517,2.39,1.99
88517,2.39,1.99
88518,2.39,1.99
88518,2.39,1.99
88518,2.38,1.99
88519,2.39,1.99
88519,2.38,1.99
88519,2.37,1.98
88520,2.37,1.99
88520,2.38,2.00
88520,2.38,2.00
88520,2.38,2.01
88521,2.38,2.00
88521,2.39,2.01
88521,2.38,2.01
88522,2.39,2.01
88522,2.39,2.01
88522,2.39,2.01
88523,2.39,2.02
88523,2.39,2.02
88523,2.39,2.02
88524,2.39,2.02
88524,2.39,2.02
88524,2.38,2.02
88524,2.38,2.02
88525,2.39,2.02
88525,2.37,2.01
88525,2.37,2.01
88526,2.37,2.01
88526,2.36,2.02
88526,2.36,2.02
88527,2.37,2.02
88527,2.37,2.02
88527,2.37,2.02
88527,2.37,2.02
88528,2.37,2.01
88528,2.37,2.02
88528,2.38,2.02
88529,2.38,2.02
88529,2.37,2.02
88529,2.38,2.02
88530,2.38,2.02
88530,2.37,2.01
88530,2.37,2.02
88530,2.37,2.01
88531,2.37,2.01
88531,2.36,2.01
88531,2.37,2.01
88532,2.37,2.01
88532,2.36,2.01
88532,2.36,2.01
88533,2.36,2.01
88533,2.36,2.01
88533,2.36,2.01
88533,2.35,2.01
88534,2.36,2.01
88534,2.36,2.01
88534,2.37,2.01
88535,2.36,2.01
88535,2.36,2.01
88535,2.36,2.01
88536,2.36,2.01
88536,2.36,2.01
88536,2.34,2.01
88536,2.36,2.01
88537,2.35,2.01
88537,2.36,2.01
88537,2.36,2.01
88538,2.37,2.01
88538,2.36,2.00
88538,2.37,2.01
88539,2.37,2.00
88539,2.37,2.00
88539,2.37,2.00
88540,2.37,2.00
88540,2.37,2.00
88540,2.38,2.00
88540,2.37,2.00
88541,2.37,2.00
88541,2.37,2.01
88541,2.37,2.01
88542,2.37,2.00
88542,2.37,2.00
88542,2.35,2.00
88543,2.37,2.01
88543,2.37,2.00
88543,2.37,2.00
88543,2.37,2.00
88544,2.38,2.00
88544,2.37,2.00
88544,2.38,2.00
88545,2.38,2.00
88545,2.37,2.00
88545,2.38,2.00
88546,2.38,2.00
88546,2.38,2.00
88546,2.37,2.00
88546,2.37,2.00
88547,2.37,1.99
88547,2.37,1.99
88547,2.37,2.00
88548,2.38,1.99
88548,2.38,2.00
88548,2.38,2.00
88549,2.38,2.00
88549,2.38,1.99
88549,2.38,2.00
88549,2.38,2.00
88550,2.37,1.99
88550,2.38,1.99
88550,2.38,1.99
88551,2.37,1.99
88551,2.37,1.99
88551,2.37,1.99
88552,2.36,1.99
88552,2.37,1.99
88552,2.36,1.99
88552,2.36,1.99
88553,2.37,2.00
88553,2.36,2.00
88553,2.36,2.00
88554,2.36,2.00
88554,2.36,2.01
88554,2.36,2.01
88555,2.37,2.01
88555,2.37,2.01
88555,2.37,2.01
88556,2.37,2.02
88556,2.37,2.01
88556,2.37,2.02
88556,2.37,2.02
88557,2.37,2.02
88557,2.36,2.02
88557,2.36,2.02
88558,2.36,2.02
88558,2.36,2.02
88558,2.36,2.02
88559,2.36,2.02
88559,2.35,2.02
88559,2.35,2.01
88559,2.35,2.02
88560,2.35,2.02
88560,2.35,2.02
88560,2.34,2.01
88561,2.34,2.02
88561,2.34,2.01
88561,2.35,2.02
88562,2.36,2.02
88562,2.35,2.02
88562,2.36,2.02
88562,2.36,2.02
88563,2.36,2.01
88563,2.36,2.02
88563,2.36,2.02
88564,2.37,2.01
88564,2.36,2.02
88564,2.36,2.01
88565,2.36,2.01
88565,2.35,2.01
88565,2.35,2.01
88565,2.34,2.01
88566,2.34,2.02
88566,2.34,2.01
88566,2.33,2.01
88567,2.34,2.02
88567,2.33,2.01
88567,2.34,2.01
88568,2.34,2.01
88568,2.34,2.01
88568,2.34,2.01
88569,2.34,2.01
88569,2.34,2.01
88569,2.34,2.01
88569,2.33,2.01
88570,2.34,2.01
88570,2.34,2.00
88570,2.34,2.01
88571,2.33,2.00
88571,2.34,2.01
88571,2.35,2.01
88572,2.34,2.01
88572,2.35,2.01
88572,2.35,2.01
88572,2.35,2.01
88573,2.35,2.00
88573,2.36,2.01
88573,2.35,2.00
88574,2.36,2.00
88574,2.35,2.01
88574,2.35,2.00
88575,2.35,2.00
88575,2.35,2.00
88575,2.35,2.00
88575,2.34,2.00
88576,2.33,2.00
88576,2.35,2.00
88576,2.35,2.00
88577,2.36,2.00
88577,2.35,1.98
88577,2.36,2.00
88578,2.35,2.00
88578,2.36,2.00
88578,2.36,2.00
88578,2.35,2.00
88579,2.35,2.00
88579,2.35,2.00
88579,2.36,2.00
88580,2.35,2.00
88580,2.35,2.00
88580,2.35,2.00
88581,2.36,2.00
88581,2.36,2.00
88581,2.36,1.99
88581,2.34,2.00
88582,2.36,2.00
88582,2.36,2.00
88582,2.36,2.00
88583,2.36,2.00
88583,2.36,1.99
88583,2.35,1.99
88584,2.36,1.99
88584,2.35,1.99
88584,2.35,1.99
88585,2.34,1.99
88585,2.34,1.99
88585,2.34,1.99
88585,2.34,1.99
88586,2.34,1.99
88586,2.34,1.99
88586,2.35,1.99
88587,2.35,1.99
88587,2.35,1.99
88587,2.36,1.99
88588,2.36,1.98
88588,2.36,1.99
88588,2.36,1.99
88588,2.36,1.99
88589,2.37,1.99
88589,2.37,1.99
88589,2.37,1.99
88590,2.37,1.99
88590,2.37,1.99
88590,2.37,1.99
88591,2.36,1.99
88591,2.36,1.98
88591,2.36,1.98
88591,2.36,1.99
88592,2.36,1.98
88592,2.36,1.99
88592,2.37,1.99
88593,2.37,1.99
88593,2.37,1.98
88593,2.38,1.99
88594,2.37,1.99
88594,2.38,1.98
88594,2.38,1.98
88594,2.37,1.98
88595,2.36,1.98
88595,2.37,1.99
88595,2.37,1.98
88596,2.37,1.98
88596,2.37,1.99
88596,2.37,1.98
88597,2.37,1.99
88597,2.37,1.98
88597,2.38,1.98
88597,2.38,1.98
88598,2.39,1.98
88598,2.38,1.98
88598,2.39,1.98
88599,2.38,1.98
88599,2.39,1.99
88599,2.38,1.98
88600,2.39,1.98
88600,2.37,1.98
88600,2.38,1.98
88601,2.37,1.98
88601,2.37,1.98
88601,2.36,1.98
88601,2.36,1.98
88602,2.36,1.98
88602,2.36,1.98
88602,2.36,1.98
88603,2.36,1.99
88603,2.36,1.99
88603,2.36,1.99
88604,2.36,2.00
88604,2.36,1.99
88604,2.37,2.00
88604,2.37,2.00
88605,2.37,2.00
88605,2.38,2.00
88605,2.37,2.00
88606,2.37,2.00
88606,2.37,2.00
88606,2.38,2.00
88607,2.38,2.00
88607,2.37,2.00
88607,2.37,2.01
88607,2.37,2.00
88608,2.37,2.00
88608,2.36,2.00
88608,2.36,2.00
88609,2.36,2.00
88609,2.35,2.00
88609,2.36,2.00
88610,2.36,2.00
88610,2.36,2.00
88610,2.36,2.00
88610,2.36,2.00
88611,2.37,2.00
88611,2.37,2.00
88611,2.37,2.01
88612,2.37,2.00
88612,2.37,2.00
88612,2.37,2.00
88613,2.36,2.00
88613,2.37,2.00
88613,2.37,2.00
88614,2.36,2.00
88614,2.36,2.00
88614,2.36,2.00
88614,2.36,2.00
88615,2.36,2.00
88615,2.34,2.00
88615,2.36,2.00
88616,2.36,2.00
88616,2.37,2.00
88616,2.36,2.00
88617,2.38,2.00
88617,2.36,2.00
88617,2.36,2.00
88617,2.37,2.00
88618,2.36,2.00
88618,2.36,2.00
88618,2.36,1.99
88619,2.36,2.00
88619,2.35,2.00
88619,2.35,2.00
88620,2.33,2.00
88620,2.35,2.00
88620,2.34,2.00
88620,2.36,2.00
88621,2.35,2.00
88621,2.35,2.00
88621,2.36,2.00
88622,2.36,2.00
88622,2.36,2.00
88622,2.38,2.00
88623,2.37,2.00
88623,2.37,2.00
88623,2.37,2.00
88623,2.37,2.00
88624,2.38,2.00
88624,2.37,1.99
88624,2.38,2.00
88625,2.37,1.99
88625,2.37,2.00
88625,2.37,2.00
88626,2.36,2.00
88626,2.37,1.99
88626,2.36,1.99
88626,2.36,1.99
88627,2.36,1.99
88627,2.36,1.99
88627,2.37,1.99
88628,2.37,1.99
88628,2.37,1.99
88628,2.38,2.00
88629,2.38,1.99
88629,2.37,1.99
88629,2.38,2.00
88629,2.39,1.99
88630,2.38,1.99
88630,2.38,1.99
88630,2.39,1.99
88631,2.38,2.00
88631,2.37,1.99
88631,2.37,1.99
88632,2.36,1.99
88632,2.37,1.99
88632,2.37,1.99
88633,2.37,1.99
88633,2.36,1.99
88633,2.37,1.99
88633,2.37,1.99
88634,2.38,1.99
88634,2.37,1.99
88634,2.37,1.99
88635,2.37,1.99
88635,2.37,1.99
88635,2.37,1.99
88636,2.37,1.99
88636,2.37,1.98
88636,2.36,1.99
88636,2.36,1.99
88637,2.36,1.99
88637,2.37,1.99
88637,2.37,1.99
88638,2.37,1.99
88638,2.37,1.99
88638,2.38,1.98
88639,2.38,1.99
88639,2.39,1.99
88639,2.39,1.98
88639,2.39,1.98
88640,2.40,1.98
88640,2.39,1.98
88640,2.39,1.98
88641,2.39,1.99
88641,2.39,1.98
88641,2.40,1.98
88642,2.39,1.98
88642,2.39,1.99
88642,2.38,1.98
88642,2.39,1.98
88643,2.38,1.98
88643,2.39,1.98
88643,2.38,1.98
88644,2.39,1.99
88644,2.39,1.98
88644,2.39,1.99
88645,2.39,1.98
88645,2.39,1.98
88645,2.40,1.98
88646,2.40,1.98
88646,2.39,1.99
88646,2.40,1.98
88646,2.40,1.98
88647,2.39,1.98
88647,2.39,1.98
88647,2.40,1.98
88648,2.39,1.98
88648,2.39,1.98
88648,2.40,1.98
88649,2.39,1.98
88649,2.40,1.98
88649,2.40,1.98
88649,2.40,1.98
88650,2.40,1.98
88650,2.40,1.98
88650,2.40,1.98
88651,2.39,1.98
88651,2.40,1.98
88651,2.39,1.98
88652,2.39,1.98
88652,2.39,1.98
88652,2.39,1.98
88652,2.38,1.98
88653,2.38,1.98
88653,2.38,1.98
88653,2.38,1.99
88654,2.38,1.99
88654,2.38,2.00
88654,2.38,2.00
88655,2.38,2.00
88655,2.39,2.00
88655,2.39,2.00
88655,2.39,2.01
88656,2.39,2.01
88656,2.39,2.01
88656,2.40,2.01
88657,2.39,2.02
88657,2.39,2.01
88657,2.39,2.02
88658,2.39,2.01
88658,2.38,2.01
88658,2.38,2.02
88658,2.37,2.02
88659,2.37,2.01
88659,2.37,2.02
88659,2.37,2.01
88660,2.37,2.01
88660,2.36,2.02
88660,2.36,2.02
88661,2.36,2.01
88661,2.36,2.01
88661,2.36,2.02
88662,2.37,2.02
88662,2.37,2.02
88662,2.37,2.01
88662,2.38,2.02
88663,2.39,2.01
88663,2.38,2.01
88663,2.38,2.02
88664,2.38,2.01
88664,2.38,2.01
88664,2.38,2.02
88665,2.38,2.01
88665,2.38,2.01
88665,2.37,2.01
88665,2.37,2.01
88666,2.35,2.01
88666,2.35,2.01
88666,2.36,2.01
88667,2.36,2.01
88667,2.36,2.01
88667,2.35,2.01
88668,2.36,2.01
88668,2.36,2.01
88668,2.35,2.01
88668,2.36,2.01
88669,2.37,2.01
88669,2.36,2.01
88669,2.36,2.01
88670,2.36,2.01
88670,2.36,2.01
88670,2.36,2.01
88671,2.36,2.01
88671,2.36,2.01
88671,2.34,2.01
88671,2.36,2.00
88672,2.37,2.01
88672,2.37,2.01
88672,2.38,2.00
88673,2.37,2.01
88673,2.38,2.01
88673,2.38,2.01
88674,2.37,2.01
88674,2.37,2.00
88674,2.37,2.01
88675,2.38,2.00
88675,2.37,2.00
88675,2.37,2.00
88675,2.37,2.00
88676,2.37,2.00
88676,2.37,2.01
88676,2.38,2.00
88677,2.38,2.00
88677,2.38,2.00
88677,2.38,2.00
88678,2.38,2.00
88678,2.36,2.00
88678,2.38,2.00
88678,2.38,2.00
88679,2.38,2.00
88679,2.37,2.00
88679,2.37,2.00
88680,2.38,2.00
88680,2.38,2.00
88680,2.38,2.00
88681,2.38,2.00
88681,2.39,2.00
88681,2.38,2.00
88681,2.39,2.00
88682,2.38,2.00
88682,2.39,2.00
88682,2.39,2.00
88683,2.38,2.00
88683,2.38,1.99
88683,2.38,2.00
88684,2.38,1.99
88684,2.37,1.99
88684,2.38,2.00
88684,2.37,1.99
88685,2.37,2.00
88685,2.37,1.99
88685,2.36,2.00
88686,2.37,2.00
88686,2.37,2.00
88686,2.37,2.00
88687,2.37,2.00
88687,2.37,2.00
88687,2.37,2.00
88687,2.37,2.00
88688,2.38,2.00
88688,2.38,2.00
88688,2.39,2.00
88689,2.39,2.00
88689,2.39,2.00
88689,2.39,2.00
88690,2.39,2.00
88690,2.39,2.00
88690,2.39,2.00
88690,2.38,2.00
88691,2.39,2.00
88691,2.38,2.00
88691,2.38,2.00
88692,2.38,2.00
88692,2.39,2.00
88692,2.38,2.00
88693,2.38,2.00
88693,2.37,2.00
88693,2.38,2.00
88694,2.39,2.00
88694,2.38,2.00
88694,2.38,2.00
88694,2.39,2.00
88695,2.39,2.00
88695,2.39,2.00
88695,2.39,2.00
88696,2.38,2.00
88696,2.38,2.00
88696,2.39,2.00
88697,2.39,2.00
88697,2.39,2.00
88697,2.39,2.00
88697,2.39,2.00
88698,2.39,2.00
88698,2.39,2.00
88698,2.39,2.00
88699,2.40,2.00
88699,2.40,2.00
88699,2.39,2.00
88700,2.39,2.00
88700,2.39,2.00
88700,2.39,2.00
88700,2.38,1.99
88701,2.38,2.00
88701,2.37,2.00
88701,2.37,1.99
88702,2.37,2.00
88702,2.37,2.00
88702,2.37,1.99
88703,2.36,2.00
88703,2.37,1.99
88703,2.38,2.00
88703,2.38,2.00
88704,2.38,2.00
88704,2.39,2.00
88704,2.39,2.00
88705,2.39,2.00
88705,2.39,2.00
88705,2.40,2.00
88706,2.40,2.00
88706,2.40,2.00
88706,2.40,2.00
88706,2.40,2.00
88707,2.40,2.00
88707,2.40,2.00
88707,2.39,2.00
88708,2.39,2.00
88708,2.39,2.00
88708,2.39,2.00
88709,2.39,2.00
88709,2.38,2.00
88709,2.39,2.00
88710,2.39,2.00
88710,2.39,2.00
88710,2.39,2.00
88710,2.40,2.00
88711,2.39,2.00
88711,2.40,2.00
88711,2.40,2.00
88712,2.39,2.00
88712,2.40,2.00
88712,2.39,2.00
88713,2.39,2.00
88713,2.39,2.00
88713,2.40,2.00
88713,2.40,2.00
88714,2.39,2.00
88714,2.40,2.00
88714,2.40,2.00
88715,2.40,2.00
88715,2.41,2.00
88715,2.40,2.00
88716,2.41,2.00
88716,2.40,1.99
88716,2.40,2.00
88716,2.40,1.99
88717,2.40,2.00
88717,2.40,1.99
88717,2.39,2.00
88718,2.39,1.99
88718,2.38,1.99
88718,2.39,1.99
88719,2.39,1.99
88719,2.38,1.99
88719,2.38,1.99
88719,2.39,1.99
88720,2.38,1.99
88720,2.39,1.99
88720,2.40,1.99
88721,2.40,1.99
88721,2.40,2.00
88721,2.41,1.99
88722,2.41,1.99
88722,2.41,1.99
88722,2.41,1.99
88722,2.42,1.99
88723,2.42,1.99
88723,2.41,1.99
88723,2.41,1.99
88724,2.41,1.99
88724,2.41,1.99
88724,2.41,1.99
88725,2.41,1.99
88725,2.41,1.99
88725,2.41,1.99
88725,2.41,1.99
88726,2.41,1.99
88726,2.41,1.99
88726,2.41,1.99
88727,2.42,1.99
88727,2.42,1.99
88727,2.42,1.99
88728,2.42,1.99
88728,2.42,1.99
88728,2.42,1.99
88729,2.41,1.98
88729,2.42,1.99
88729,2.42,1.98
88729,2.41,1.99
88730,2.43,1.99
88730,2.42,1.99
88730,2.43,1.99
88731,2.43,1.99
88731,2.43,1.99
88731,2.43,1.98
88732,2.43,1.99
88732,2.43,1.99
88732,2.43,1.98
88732,2.43,1.99
88733,2.43,1.98
88733,2.43,1.99
88733,2.42,1.99
88734,2.42,1.98
88734,2.41,1.98
88734,2.42,1.98
88735,2.41,1.99
88735,2.41,1.99
88735,2.41,1.98
88735,2.41,1.98
88736,2.41,1.98
88736,2.41,1.99
88736,2.41,1.98
88737,2.42,1.98
88737,2.43,1.98
88737,2.42,1.98
88738,2.43,1.98
88738,2.44,1.99
88738,2.43,1.98
88738,2.44,1.98
88739,2.44,1.98
88739,2.44,1.98
88739,2.44,1.98
88740,2.44,1.98
88740,2.44,1.98
88740,2.44,1.98
88741,2.43,1.98
88741,2.44,1.98
88741,2.43,1.98
88742,2.43,1.98
88742,2.43,1.98
88742,2.44,1.98
88742,2.44,1.98
88743,2.44,1.98
88743,2.44,1.98
88743,2.45,1.98
88744,2.45,1.98
88744,2.45,1.98
88744,2.45,1.98
88745,2.45,1.98
88745,2.45,1.98
88745,2.45,1.98
88745,2.45,1.98
88746,2.45,1.98
88746,2.45,1.98
88746,2.45,1.98
88747,2.45,1.98
88747,2.45,1.98
88747,2.46,1.98
88748,2.46,1.98
88748,2.46,1.98
88748,2.45,1.98
88748,2.46,1.98
88749,2.46,1.98
88749,2.45,1.98
88749,2.46,1.98
88750,2.46,1.98
88750,2.45,1.98
88750,2.44,1.98
88751,2.45,1.98
88751,2.44,1.98
88751,2.44,1.98
88751,2.44,1.98
88752,2.44,1.98
88752,2.44,1.98
88752,2.44,1.98
88753,2.44,1.98
88753,2.44,1.98
88753,2.44,1.98
88754,2.44,1.98
88754,2.45,1.98
88754,2.45,1.98
88755,2.46,1.98
88755,2.47,1.98
88755,2.47,1.98
88755,2.47,1.98
88756,2.47,1.98
88756,2.47,1.98
88756,2.46,1.98
88757,2.47,1.98
88757,2.46,1.98
88757,2.47,1.98
88758,2.46,1.98
88758,2.46,1.97
88758,2.47,1.98
88758,2.46,1.98
88759,2.47,1.98
88759,2.46,1.98
88759,2.46,1.98
88760,2.48,1.98
88760,2.47,1.98
88760,2.47,1.98
88761,2.47,1.98
88761,2.48,1.98
88761,2.47,1.98
88761,2.49,1.98
88762,2.49,1.98
88762,2.48,1.98
88762,2.47,1.98
88763,2.47,1.98
88763,2.47,1.99
88763,2.47,1.98
88764,2.48,1.98
88764,2.49,1.98
88764,2.49,1.98
88764,2.49,1.98
88765,2.49,1.98
88765,2.49,1.97
88765,2.49,1.98
88766,2.49,1.98
88766,2.49,1.97
88766,2.51,1.97
88767,2.47,1.98
88767,2.47,1.98
88767,2.47,1.98
88767,2.47,1.98
88768,2.47,1.97
88768,2.47,1.98
88768,2.46,1.98
88769,2.47,1.98
88769,2.47,1.98
88769,2.47,1.98
88770,2.47,1.98
88770,2.47,1.98
88770,2.47,1.98
88771,2.48,1.98
88771,2.49,1.98
88771,2.49,1.98
88771,2.49,1.98
88772,2.49,1.98
88772,2.50,1.98
88772,2.50,1.98
88773,2.50,1.98
88773,2.51,1.98
88773,2.50,1.97
88774,2.50,1.97
88774,2.50,1.98
88774,2.49,1.98
88774,2.50,1.98
88775,2.50,1.98
88775,2.49,1.97
88775,2.49,1.98
88776,2.50,1.98
88776,2.50,1.98
88776,2.50,1.98
88777,2.50,1.98
88777,2.51,1.98
88777,2.51,1.98
88777,2.51,1.98
88778,2.51,1.97
88778,2.51,1.98
88778,2.51,1.98
88779,2.51,1.98
88779,2.50,1.97
88779,2.51,1.98
88780,2.50,1.98
88780,2.51,1.98
88780,2.51,1.98
88780,2.52,1.98
88781,2.52,1.98
88781,2.52,1.98
88781,2.52,1.98
88782,2.51,1.98
88782,2.51,1.98
88782,2.52,1.97
88783,2.51,1.98
88783,2.51,1.98
88783,2.51,1.98
88784,2.51,1.98
88784,2.50,1.97
88784,2.50,1.98
88784,2.49,1.97
88785,2.50,1.98
88785,2.50,1.98
88785,2.50,1.98
88786,2.50,1.98
88786,2.50,1.98
88786,2.49,1.98
88787,2.51,1.98
88787,2.51,1.98
88787,2.51,1.98
88787,2.52,1.97
88788,2.52,1.98
88788,2.52,1.98
88788,2.53,1.98
88789,2.53,1.98
88789,2.53,1.98
88789,2.54,1.97
88790,2.53,1.98
88790,2.53,1.98
88790,2.52,1.98
88790,2.52,1.98
88791,2.52,1.98
88791,2.52,1.98
88791,2.51,1.98
88792,2.52,1.98
88792,2.52,1.98
88792,2.53,1.98
88793,2.53,1.98
88793,2.54,1.98
88793,2.53,1.98
88793,2.54,1.98
88794,2.54,1.98
88794,2.54,1.98
88794,2.54,1.98
88795,2.54,1.98
88795,2.54,1.97
88795,2.54,1.98
88796,2.53,1.97
88796,2.54,1.98
88796,2.54,1.97
88796,2.54,1.97
88797,2.54,1.98
88797,2.54,1.98
88797,2.54,1.97
88798,2.54,1.98
88798,2.55,1.98
88798,2.54,1.98
88799,2.55,1.98
88799,2.55,1.98
88799,2.54,1.97
88800,2.54,1.98
88800,2.54,1.97
88800,2.54,1.98
88800,2.54,1.97
88801,2.53,1.98
88801,2.53,1.97
88801,2.53,1.98
88802,2.53,1.98
88802,2.52,1.97
88802,2.54,1.97
88803,2.53,1.98
88803,2.53,1.97
88803,2.53,1.98
88803,2.53,1.98
88804,2.54,1.98
88804,2.54,1.98
88804,2.54,1.99
88805,2.54,1.98
88805,2.54,1.98
88805,2.55,1.98
88806,2.55,1.98
88806,2.56,1.99
88806,2.55,1.98
88806,2.55,1.98
88807,2.56,1.98
88807,2.55,1.98
88807,2.56,1.98
88808,2.55,1.98
88808,2.54,1.98
88808,2.54,1.98
88809,2.55,1.98
88809,2.55,1.98
88809,2.55,1.99
88809,2.55,1.98
88810,2.55,1.99
88810,2.55,1.98
88810,2.55,1.98
88811,2.56,1.98
88811,2.56,1.98
88811,2.56,1.98
88812,2.57,1.98
88812,2.56,1.98
88812,2.56,1.98
88813,2.56,1.98
88813,2.56,1.99
88813,2.56,1.99
88813,2.56,1.98
88814,2.56,1.99
88814,2.56,1.98
88814,2.56,1.98
88815,2.57,1.98
88815,2.56,1.98
88815,2.56,1.98
88816,2.57,1.98
88816,2.56,1.98
88816,2.56,1.98
88816,2.56,1.98
88817,2.55,1.98
88817,2.55,1.98
88817,2.55,1.98
88818,2.54,1.98
88818,2.54,1.98
88818,2.54,1.98
88819,2.54,1.98
88819,2.55,1.98
88819,2.55,1.98
88819,2.55,1.98
88820,2.55,1.98
88820,2.56,1.98
88820,2.56,1.98
88821,2.57,1.99
88821,2.57,1.98
88821,2.57,1.98
88822,2.57,1.99
88822,2.58,1.98
88822,2.57,1.99
88822,2.58,1.98
88823,2.57,1.98
88823,2.57,1.98
88823,2.57,1.98
88824,2.57,1.98
88824,2.57,1.98
88824,2.57,1.98
88825,2.57,1.98
88825,2.57,1.98
88825,2.57,1.98
88826,2.57,1.98
88826,2.57,1.98
88826,2.57,1.98
88826,2.58,1.98
88827,2.58,1.99
88827,2.58,1.98
88827,2.58,1.98
88828,2.58,1.98
88828,2.58,1.98
88828,2.59,1.98
88829,2.58,1.98
88829,2.58,1.98
88829,2.59,1.98
88829,2.59,1.98
88830,2.58,1.98
88830,2.58,1.98
88830,2.59,1.98
88831,2.59,1.98
88831,2.59,1.98
88831,2.59,1.98
88832,2.59,1.98
88832,2.59,1.98
88832,2.59,1.98
88832,2.58,1.98
88833,2.59,1.98
88833,2.59,1.98
88833,2.58,1.98
88834,2.58,1.98
88834,2.57,1.98
88834,2.57,1.98
88835,2.57,1.98
88835,2.57,1.98
88835,2.57,1.98
88835,2.57,1.98
88836,2.57,1.98
88836,2.58,1.98
88836,2.57,1.98
88837,2.58,1.98
88837,2.59,1.98
88837,2.59,1.98
88838,2.59,1.98
88838,2.59,1.98
88838,2.60,1.98
88839,2.60,1.98
88839,2.60,1.98
88839,2.60,1.98
88839,2.60,1.98
88840,2.59,1.98
88840,2.59,1.98
88840,2.59,1.97
88841,2.58,1.98
88841,2.59,1.98
88841,2.59,1.98
88842,2.59,1.98
88842,2.60,1.98
88842,2.59,1.98
88842,2.59,1.98
88843,2.60,1.98
88843,2.60,1.98
88843,2.61,1.98
88844,2.60,1.98
88844,2.60,1.98
88844,2.61,1.98
88845,2.61,1.98
88845,2.61,1.98
88845,2.62,1.98
88845,2.61,1.98
88846,2.62,1.98
88846,2.61,1.98
88846,2.61,1.98
88847,2.61,1.98
88847,2.61,1.97
88847,2.62,1.98
88848,2.61,1.98
88848,2.62,1.98
88848,2.61,1.98
88848,2.62,1.98
88849,2.62,1.98
88849,2.62,1.98
88849,2.61,1.98
88850,2.62,1.98
88850,2.61,1.98
88850,2.61,1.98
88851,2.60,1.98
88851,2.60,1.98
88851,2.60,1.98
88851,2.60,1.98
88852,2.59,1.98
88852,2.60,1.98
88852,2.59,1.98
88853,2.59,1.99
88853,2.59,1.99
88853,2.59,2.00
88854,2.59,2.00
88854,2.59,2.01
88854,2.59,2.01
88855,2.59,2.01
88855,2.59,2.01
88855,2.59,2.02
88855,2.59,2.02
88856,2.59,2.02
88856,2.59,2.02
88856,2.58,2.02
88857,2.58,2.02
88857,2.58,2.02
88857,2.57,2.02
88858,2.57,2.02
88858,2.57,2.02
88858,2.56,2.03
88858,2.56,2.03
88859,2.56,2.03
88859,2.56,2.03
88859,2.56,2.03
88860,2.55,2.03
88860,2.56,2.03
88860,2.56,2.03
88861,2.56,2.03
88861,2.54,2.02
88861,2.57,2.03
88861,2.57,2.03
88862,2.56,2.03
88862,2.57,2.03
88862,2.56,2.02
88863,2.56,2.02
88863,2.56,2.02
88863,2.56,2.03
88864,2.56,2.03
88864,2.55,2.03
88864,2.56,2.03
88864,2.56,2.03
88865,2.56,2.03
88865,2.56,2.03
88865,2.56,2.03
88866,2.56,2.02
88866,2.55,2.02
88866,2.55,2.02
88867,2.55,2.02
88867,2.55,2.02
88867,2.54,2.02
88867,2.54,2.02
88868,2.54,2.02
88868,2.53,2.02
88868,2.53,2.02
88869,2.53,2.02
88869,2.53,2.02
88869,2.53,2.02
88870,2.53,2.02
88870,2.54,2.02
88870,2.53,2.02
88871,2.54,2.02
88871,2.54,2.02
88871,2.54,2.02
88871,2.54,2.02
88872,2.54,2.02
88872,2.55,2.02
88872,2.55,2.02
88873,2.55,2.02
88873,2.55,2.02
88873,2.55,2.02
88874,2.55,2.02
88874,2.55,2.02
88874,2.54,2.02
88874,2.54,2.02
88875,2.54,2.01
88875,2.54,2.02
88875,2.54,2.02
88876,2.54,2.01
88876,2.54,2.01
88876,2.54,2.01
88877,2.54,2.02
88877,2.54,2.02
88877,2.55,2.02
88877,2.55,2.01
88878,2.55,2.01
88878,2.55,2.01
88878,2.54,2.01
88879,2.55,2.01
88879,2.54,2.00
88879,2.54,2.01
88880,2.54,2.01
88880,2.54,2.00
88880,2.55,2.01
88880,2.54,2.01
88881,2.55,2.01
88881,2.55,2.01
88881,2.56,2.01
88882,2.56,2.01
88882,2.55,2.01
88882,2.56,2.00
88883,2.55,2.00
88883,2.54,2.01
88883,2.54,2.00
88883,2.54,2.00
88884,2.54,2.01
88884,2.53,2.00
88884,2.53,2.00
88885,2.52,2.00
88885,2.53,2.00
88885,2.53,2.00
88886,2.53,2.00
88886,2.53,2.00
88886,2.53,2.00
88887,2.53,2.00
88887,2.54,2.00
88887,2.54,2.00
88887,2.54,2.00
88888,2.54,2.00
88888,2.55,2.00
88888,2.54,2.00
88889,2.55,2.00
88889,2.55,2.00
88889,2.56,2.00
88890,2.55,2.00
88890,2.56,2.00
88890,2.55,2.00
88890,2.55,1.99
88891,2.55,1.99
88891,2.55,2.00
88891,2.55,1.99
88892,2.55,2.00
88892,2.55,1.99
88892,2.55,2.00
88893,2.55,1.99
88893,2.55,1.99
88893,2.56,1.99
88893,2.56,1.99
88894,2.56,1.99
88894,2.56,1.99
88894,2.56,1.99
88895,2.56,1.99
88895,2.56,1.99
88895,2.56,1.99
88896,2.56,1.99
88896,2.56,1.99
88896,2.56,1.99
88896,2.57,1.99
88897,2.56,1.99
88897,2.57,1.99
88897,2.56,1.99
88898,2.57,1.99
88898,2.57,1.99
88898,2.57,1.98
88899,2.57,1.99
88899,2.57,1.99
88899,2.57,1.99
88899,2.57,1.99
88900,2.56,1.98
88900,2.56,1.99
88900,2.56,1.98
88901,2.55,1.99
88901,2.55,1.98
88901,2.55,1.98
88902,2.54,1.99
88902,2.55,1.98
88902,2.55,1.98
88903,2.54,1.98
88903,2.56,1.99
88903,2.56,1.99
88903,2.56,1.98
88904,2.56,1.98
88904,2.57,1.98
88904,2.56,1.98
88905,2.57,1.98
88905,2.57,1.98
88905,2.58,1.98
88906,2.58,1.98
88906,2.57,1.98
88906,2.57,1.99
88906,2.57,1.98
88907,2.57,1.98
88907,2.57,1.98
88907,2.57,1.98
88908,2.57,1.98
88908,2.57,1.98
88908,2.57,1.98
88909,2.57,1.98
88909,2.57,1.98
88909,2.57,1.98
88909,2.58,1.98
88910,2.58,1.98
88910,2.58,1.98
88910,2.58,1.98
88911,2.58,1.98
88911,2.58,1.98
88911,2.58,1.98
88912,2.58,1.98
88912,2.58,1.98
88912,2.58,1.98
88912,2.58,1.98
88913,2.58,1.98
88913,2.58,1.98
88913,2.58,1.98
88914,2.59,1.98
88914,2.59,1.98
88914,2.59,1.98
88915,2.59,1.98
88915,2.59,1.98
88915,2.59,1.98
88916,2.59,1.98
88916,2.59,1.98
88916,2.59,1.98
88916,2.58,1.98
88917,2.58,1.98
88917,2.58,1.98
88917,2.57,1.98
88918,2.57,1.98
88918,2.57,1.98
88918,2.57,1.98
88919,2.57,1.98
88919,2.57,1.98
88919,2.57,1.98
88919,2.58,1.98
88920,2.57,1.98
88920,2.57,1.98
88920,2.57,1.99
88921,2.57,1.99
88921,2.59,1.99
88921,2.58,1.99
88922,2.59,1.99
88922,2.59,2.00
88922,2.59,1.99
88922,2.59,1.99
88923,2.59,1.99
88923,2.59,1.99
88923,2.58,1.99
88924,2.58,1.99
88924,2.58,1.99
88924,2.58,1.99
88925,2.58,1.99
88925,2.57,1.99
88925,2.57,2.00
88925,2.57,1.99
88926,2.57,1.99
88926,2.57,1.99
88926,2.57,1.99
88927,2.58,2.00
88927,2.58,2.00
88927,2.59,1.99
88928,2.58,1.99
88928,2.59,1.99
88928,2.59,1.99
88928,2.59,2.00
88929,2.59,2.00
88929,2.59,1.99
88929,2.59,1.99
88930,2.58,1.99
88930,2.58,1.99
88930,2.59,2.00
88931,2.58,1.99
88931,2.59,1.99
88931,2.58,1.99
88932,2.59,2.00
88932,2.59,1.99
88932,2.60,1.99
88932,2.59,1.99
88933,2.59,1.99
88933,2.58,1.99
88933,2.58,1.99
88934,2.58,1.99
88934,2.57,1.99
88934,2.57,1.99
88935,2.57,1.99
88935,2.57,1.99
88935,2.56,1.99
88935,2.57,1.99
88936,2.57,1.99
88936,2.57,1.99
88936,2.57,2.00
88937,2.57,2.00
88937,2.57,2.00
88937,2.57,2.00
88938,2.58,2.00
88938,2.57,2.00
88938,2.58,2.01
88938,2.58,2.01
88939,2.58,2.01
88939,2.58,2.01
88939,2.58,2.01
88940,2.57,2.01
88940,2.57,2.01
88940,2.57,2.01
88941,2.57,2.01
88941,2.56,2.01
88941,2.56,2.01
88941,2.56,2.01
88942,2.55,2.01
88942,2.56,2.01
88942,2.55,2.01
88943,2.56,2.01
88943,2.55,2.01
88943,2.55,2.01
88944,2.56,2.01
88944,2.56,2.01
88944,2.57,2.01
88945,2.57,2.01
88945,2.56,2.01
88945,2.57,2.01
88945,2.57,2.01
88946,2.56,2.01
88946,2.56,2.01
88946,2.56,2.01
88947,2.56,2.01
88947,2.56,2.01
88947,2.56,2.01
88948,2.57,2.01
88948,2.56,2.01
88948,2.57,2.01
88948,2.57,2.00
88949,2.56,2.01
88949,2.56,2.01
88949,2.56,2.01
88950,2.56,2.00
88950,2.55,2.01
88950,2.55,2.00
88951,2.54,2.00
88951,2.56,2.01
88951,2.54,2.01
88951,2.56,2.00
88952,2.54,2.00
88952,2.54,2.00
88952,2.54,2.01
88953,2.52,2.00
88953,2.54,2.00
88953,2.55,2.00
88954,2.55,2.00
88954,2.55,2.00
88954,2.56,2.00
88954,2.56,2.00
88955,2.57,2.00
88955,2.56,2.00
88955,2.57,2.00
88956,2.57,2.00
88956,2.56,2.00
88956,2.57,2.00
88957,2.56,2.00
88957,2.56,2.00
88957,2.56,2.00
88957,2.55,2.00
88958,2.56,2.00
88958,2.55,2.00
88958,2.56,2.00
88959,2.56,2.00
88959,2.56,2.00
88959,2.57,2.00
88960,2.57,2.00
88960,2.57,2.00
88960,2.57,2.00
88961,2.57,2.00
88961,2.57,2.00
88961,2.57,1.99
88961,2.57,2.00
88962,2.57,2.00
88962,2.57,1.99
88962,2.57,1.99
88963,2.57,1.99
88963,2.57,1.99
88963,2.57,1.99
88964,2.57,1.99
88964,2.57,1.99
88964,2.55,1.99
88964,2.57,1.99
88965,2.57,1.99
88965,2.58,1.99
88965,2.57,1.99
88966,2.58,1.99
88966,2.57,1.99
88966,2.57,1.99
88967,2.57,1.99
88967,2.57,1.99
88967,2.56,1.99
88967,2.56,1.99
88968,2.56,1.99
88968,2.56,1.99
88968,2.57,1.98
88969,2.55,1.99
88969,2.55,1.99
88969,2.55,1.98
88970,2.56,1.99
88970,2.55,1.99
88970,2.57,1.99
88970,2.56,1.99
88971,2.56,1.99
88971,2.57,1.99
88971,2.57,1.99
88972,2.57,1.99
88972,2.57,1.99
88972,2.58,1.99
88973,2.58,1.99
88973,2.58,1.99
88973,2.58,1.99
88973,2.58,1.99
88974,2.57,1.99
88974,2.57,1.99
88974,2.57,1.99
88975,2.57,1.99
88975,2.57,1.99
88975,2.56,1.99
88976,2.57,1.98
88976,2.57,1.98
88976,2.57,1.99
88977,2.58,1.99
88977,2.58,1.99
88977,2.58,1.98
88977,2.57,1.99
88978,2.58,1.98
88978,2.59,1.99
88978,2.58,1.98
88979,2.58,1.99
88979,2.58,1.99
88979,2.59,1.98
88980,2.58,1.98
88980,2.58,1.98
88980,2.58,1.98
88980,2.58,1.99
88981,2.58,1.98
88981,2.56,1.98
88981,2.57,1.98
88982,2.58,1.99
88982,2.59,1.98
88982,2.59,1.99
88983,2.59,1.99
88983,2.59,1.98
88983,2.58,1.98
88983,2.58,1.98
88984,2.57,1.98
88984,2.57,1.98
88984,2.57,1.98
88985,2.57,1.98
88985,2.57,1.98
88985,2.56,1.98
88986,2.57,1.98
88986,2.57,1.98
88986,2.57,1.99
88986,2.57,1.99
88987,2.56,2.00
88987,2.57,2.00
88987,2.57,2.00
88988,2.57,2.00
88988,2.58,2.00
88988,2.57,2.01
88989,2.58,2.01
88989,2.58,2.01
88989,2.57,2.01
88990,2.57,2.01
88990,2.57,2.01
88990,2.56,2.01
88990,2.56,2.01
88991,2.56,2.01
88991,2.56,2.01
88991,2.55,2.01
88992,2.55,2.01
88992,2.54,2.01
88992,2.54,2.01
88993,2.55,2.01
88993,2.55,2.02
88993,2.55,2.01
88993,2.55,2.01
88994,2.55,2.01
88994,2.56,2.01
88994,2.55,2.01
88995,2.56,2.01
88995,2.56,2.01
88995,2.56,2.01
88996,2.55,2.01
88996,2.55,2.01
88996,2.56,2.01
88996,2.55,2.01
88997,2.56,2.01
88997,2.55,2.01
88997,2.55,2.01
88998,2.55,2.01
88998,2.55,2.01
88998,2.56,2.01
88999,2.55,2.01
88999,2.56,2.01
88999,2.56,2.01
88999,2.55,2.01
89000,2.53,2.01
89000,2.55,2.00
89000,2.55,2.00
89001,2.54,2.00
89001,2.54,2.00
89001,2.54,2.00
89002,2.54,2.00
89002,2.53,2.00
89002,2.53,2.00
89003,2.53,2.01
89003,2.53,2.01
89003,2.53,2.01
89003,2.53,2.02
89004,2.53,2.02
89004,2.53,2.02
89004,2.53,2.02
89005,2.53,2.03
89005,2.54,2.03
89005,2.54,2.02
89006,2.54,2.03
89006,2.54,2.03
89006,2.54,2.03
89006,2.53,2.03
89007,2.53,2.03
89007,2.53,2.03
89007,2.52,2.03
89008,2.51,2.02
89008,2.51,2.03
89008,2.51,2.03
89009,2.51,2.03
89009,2.51,2.03
89009,2.51,2.03
89009,2.51,2.03
89010,2.51,2.03
89010,2.52,2.03
89010,2.51,2.03
89011,2.52,2.03
89011,2.52,2.03
89011,2.52,2.03
89012,2.51,2.02
89012,2.52,2.03
89012,2.50,2.03
89012,2.49,2.02
89013,2.51,2.02
89013,2.51,2.03
89013,2.51,2.02
89014,2.50,2.02
89014,2.51,2.02
89014,2.51,2.02
89015,2.50,2.02
89015,2.51,2.02
89015,2.51,2.02
89015,2.52,2.02
89016,2.51,2.02
89016,2.51,2.02
89016,2.51,2.02
89017,2.51,2.02
89017,2.50,2.02
89017,2.50,2.01
89018,2.47,2.02
89018,2.49,2.02
89018,2.49,2.02
89019,2.49,2.02
89019,2.49,2.01
89019,2.49,2.01
89019,2.48,2.01
89020,2.49,2.02
89020,2.49,2.01
89020,2.49,2.01
89021,2.47,2.02
89021,2.50,2.02
89021,2.50,2.02
89022,2.50,2.02
89022,2.51,2.02
89022,2.50,2.02
89022,2.51,2.01
89023,2.51,2.01
89023,2.51,2.01
89023,2.51,2.01
89024,2.51,2.01
89024,2.50,2.01
89024,2.50,2.01
89025,2.50,2.01
89025,2.49,2.01
89025,2.50,2.01
89025,2.50,2.01
89026,2.50,2.01
89026,2.50,2.01
89026,2.50,2.01
89027,2.51,2.01
89027,2.51,2.01
89027,2.51,2.01
89028,2.52,2.00
89028,2.51,2.00
89028,2.51,2.00
89028,2.51,2.01
89029,2.50,2.01
89029,2.51,2.01
89029,2.51,2.01
89030,2.51,2.00
89030,2.50,2.00
89030,2.50,2.00
89031,2.51,2.00
89031,2.51,2.00
89031,2.51,2.00
89031,2.51,2.00
89032,2.51,2.00
89032,2.51,2.00
89032,2.51,2.00
89033,2.50,2.00
89033,2.51,2.00
89033,2.50,2.00
89034,2.50,2.00
89034,2.50,2.00
89034,2.50,2.00
89035,2.49,2.00
89035,2.49,2.00
89035,2.49,2.00
89035,2.50,1.99
89036,2.49,2.00
89036,2.47,2.00
89036,2.50,1.99
89037,2.49,2.00
89037,2.50,2.00
89037,2.50,2.00
89038,2.51,1.99
89038,2.51,1.99
89038,2.51,1.99
89038,2.52,1.99
89039,2.52,2.00
89039,2.52,1.99
89039,2.51,1.99
89040,2.52,1.99
89040,2.51,1.99
89040,2.51,1.99
89041,2.51,1.99
89041,2.51,1.99
89041,2.51,1.99
89041,2.51,1.99
89042,2.51,1.99
89042,2.51,1.99
89042,2.51,1.99
89043,2.51,1.99
89043,2.52,1.99
89043,2.52,1.99
89044,2.52,1.99
89044,2.52,1.98
89044,2.53,1.98
89044,2.52,1.98
89045,2.52,1.98
89045,2.52,1.98
89045,2.52,1.98
89046,2.52,1.99
89046,2.51,1.98
89046,2.50,1.99
89047,2.52,1.99
89047,2.53,1.98
89047,2.52,1.99
89047,2.53,1.99
89048,2.53,1.98
89048,2.53,1.99
89048,2.53,1.98
89049,2.53,1.98
89049,2.54,1.98
89049,2.53,1.98
89050,2.52,1.98
89050,2.53,1.98
89050,2.52,1.98
89051,2.51,1.98
89051,2.52,1.98
89051,2.51,1.98
89051,2.51,1.98
89052,2.51,1.98
89052,2.51,1.98
89052,2.51,1.98
89053,2.51,1.98
89053,2.51,1.98
89053,2.52,1.98
89054,2.51,1.98
89054,2.52,1.98
89054,2.54,1.98
89054,2.53,1.98
89055,2.53,1.98
89055,2.53,1.98
89055,2.54,1.98
89056,2.54,1.98
89056,2.54,1.98
89056,2.54,1.98
89057,2.54,1.98
89057,2.54,1.98
89057,2.54,1.98
89057,2.54,1.98
89058,2.53,1.98
89058,2.53,1.98
89058,2.53,1.98
89059,2.53,1.98
89059,2.53,1.99
89059,2.54,1.98
89060,2.53,1.98
89060,2.54,1.98
89060,2.54,1.97
89060,2.54,1.98
89061,2.54,1.98
89061,2.55,1.98
89061,2.54,1.98
89062,2.54,1.98
89062,2.55,1.98
89062,2.55,1.97
89063,2.54,1.98
89063,2.54,1.98
89063,2.55,1.98
89063,2.54,1.98
89064,2.54,1.98
89064,2.55,1.98
89064,2.55,1.98
89065,2.55,1.98
89065,2.55,1.98
89065,2.55,1.98
89066,2.56,1.97
89066,2.56,1.97
89066,2.55,1.98
89067,2.54,1.98
89067,2.54,1.98
89067,2.54,1.98
89067,2.54,1.98
89068,2.54,1.97
89068,2.54,1.97
89068,2.53,1.98
89069,2.54,1.97
89069,2.54,1.97
89069,2.54,1.98
89070,2.54,1.98
89070,2.54,1.98
89070,2.54,1.97
89070,2.54,1.97
89071,2.55,1.97
89071,2.55,1.98
89071,2.55,1.97
89072,2.56,1.97
89072,2.57,1.98
89072,2.56,1.98
89073,2.57,1.97
89073,2.57,1.97
89073,2.56,1.98
89073,2.57,1.97
89074,2.56,1.97
89074,2.56,1.97
89074,2.56,1.97
89075,2.55,1.97
89075,2.56,1.97
89075,2.56,1.97
89076,2.56,1.98
89076,2.55,1.97
89076,2.57,1.97
89076,2.56,1.98
89077,2.57,1.98
89077,2.57,1.98
89077,2.57,1.98
89078,2.57,1.98
89078,2.57,1.97
89078,2.57,1.98
89079,2.57,1.97
89079,2.57,1.98
89079,2.57,1.98
89080,2.57,1.98
89080,2.57,1.97
89080,2.57,1.98
89080,2.57,1.98
89081,2.57,1.98
89081,2.57,1.98
89081,2.58,1.97
89082,2.58,1.98
89082,2.58,1.97
89082,2.58,1.97
89083,2.58,1.98
89083,2.58,1.97
89083,2.57,1.97
89083,2.57,1.98
89084,2.57,1.98
89084,2.57,1.97
89084,2.56,1.97
89085,2.56,1.97
89085,2.56,1.98
89085,2.56,1.98
89086,2.56,1.97
89086,2.56,1.97
89086,2.56,1.98
89086,2.56,1.98
89087,2.56,1.98
89087,2.58,1.99
89087,2.57,1.98
89088,2.57,1.99
89088,2.57,1.98
89088,2.58,1.99
89089,2.58,1.99
89089,2.58,1.99
89089,2.58,1.99
89089,2.57,1.99
89090,2.57,1.99
89090,2.57,1.99
89090,2.57,1.99
89091,2.57,1.99
89091,2.57,1.99
89091,2.56,1.99
89092,2.56,1.99
89092,2.57,1.99
89092,2.56,1.99
89092,2.56,1.99
89093,2.57,2.00
89093,2.57,1.99
89093,2.57,1.99
89094,2.57,1.99
89094,2.57,1.99
89094,2.58,1.99
89095,2.57,1.99
89095,2.58,1.99
89095,2.58,1.99
89096,2.58,1.99
89096,2.57,1.99
89096,2.57,2.00
89096,2.58,2.00
89097,2.57,1.99
89097,2.57,1.99
89097,2.59,1.99
89098,2.58,1.99
89098,2.58,1.99
89098,2.58,1.99
89099,2.58,1.99
89099,2.58,1.99
89099,2.58,1.99
89099,2.58,1.99
89100,2.58,1.99
89100,2.57,1.99
89100,2.57,1.99
89101,2.57,1.99
89101,2.56,1.99
89101,2.56,1.99
89102,2.56,1.99
89102,2.56,1.99
89102,2.56,1.99
89102,2.56,1.99
89103,2.57,1.99
89103,2.57,1.99
89103,2.56,1.99
89104,2.57,1.99
89104,2.57,1.99
89104,2.57,1.99
89105,2.57,1.99
89105,2.58,1.99
89105,2.58,1.99
89105,2.59,1.99
89106,2.58,1.99
89106,2.59,1.99
89106,2.59,1.99
89107,2.58,1.99
89107,2.58,1.99
89107,2.58,1.99
89108,2.58,1.99
89108,2.58,1.99
89108,2.58,1.99
89109,2.57,1.99
89109,2.57,1.99
89109,2.58,1.99
89109,2.58,1.99
89110,2.59,1.99
89110,2.59,1.99
89110,2.59,1.99
89111,2.59,1.99
89111,2.59,1.99
89111,2.59,1.99
89112,2.59,1.99
89112,2.59,1.99
89112,2.59,1.99
89112,2.58,1.99
89113,2.59,1.99
89113,2.59,1.99
89113,2.59,1.99
89114,2.59,1.99
89114,2.59,1.99
89114,2.59,1.99
89115,2.59,1.99
89115,2.59,1.99
89115,2.59,1.99
89115,2.59,1.99
89116,2.59,1.99
89116,2.59,1.99
89116,2.59,1.99
89117,2.58,1.99
89117,2.58,1.99
89117,2.58,1.99
89118,2.58,1.99
89118,2.57,1.99
89118,2.57,1.98
89118,2.57,1.98
89119,2.57,1.99
89119,2.57,1.99
89119,2.57,2.00
89120,2.58,2.00
89120,2.57,2.00
89120,2.58,2.00
89121,2.58,2.00
89121,2.58,2.01
89121,2.58,2.01
89122,2.58,2.01
89122,2.58,2.01
89122,2.58,2.01
89122,2.58,2.01
89123,2.58,2.01
89123,2.57,2.01
89123,2.57,2.01
89124,2.57,2.02
89124,2.56,2.01
89124,2.55,2.01
89125,2.56,2.01
89125,2.56,2.02
89125,2.56,2.02
89125,2.55,2.02
89126,2.55,2.02
89126,2.55,2.03
89126,2.55,2.03
89127,2.55,2.02
89127,2.56,2.03
89127,2.55,2.03
89128,2.56,2.02
89128,2.55,2.03
89128,2.55,2.03
89128,2.55,2.03
89129,2.54,2.03
89129,2.54,2.03
89129,2.54,2.04
89130,2.54,2.03
89130,2.54,2.03
89130,2.54,2.04
89131,2.54,2.03
89131,2.53,2.03
89131,2.54,2.03
89131,2.54,2.04
89132,2.54,2.03
89132,2.54,2.03
89132,2.54,2.03
89133,2.52,2.03
89133,2.53,2.03
89133,2.53,2.03
89134,2.54,2.03
89134,2.52,2.03
89134,2.53,2.03
89134,2.52,2.02
89135,2.52,2.03
89135,2.51,2.02
89135,2.51,2.03
89136,2.51,2.03
89136,2.51,2.03
89136,2.51,2.04
89137,2.51,2.04
89137,2.51,2.04
89137,2.51,2.05
89138,2.51,2.05
89138,2.52,2.05
89138,2.52,2.05
89138,2.52,2.05
89139,2.52,2.05
89139,2.51,2.05
89139,2.51,2.05
89140,2.51,2.05
89140,2.51,2.05
89140,2.50,2.05
89141,2.50,2.05
89141,2.50,2.05
89141,2.49,2.05
89141,2.49,2.05
89142,2.49,2.05
89142,2.47,2.05
89142,2.47,2.05
89143,2.49,2.05
89143,2.49,2.05
89143,2.49,2.05
89144,2.49,2.05
89144,2.49,2.05
89144,2.49,2.05
89144,2.50,2.05
89145,2.49,2.05
89145,2.49,2.05
89145,2.49,2.05
89146,2.49,2.04
89146,2.47,2.04
89146,2.47,2.04
89147,2.47,2.04
89147,2.48,2.05
89147,2.49,2.05
89147,2.49,2.04
89148,2.49,2.04
89148,2.49,2.04
89148,2.49,2.04
89149,2.49,2.04
89149,2.49,2.04
89149,2.47,2.04
89150,2.48,2.04
89150,2.49,2.04
89150,2.49,2.04
89150,2.47,2.03
89151,2.46,2.03
89151,2.46,2.03
89151,2.46,2.03
89152,2.46,2.03
89152,2.46,2.03
89152,2.46,2.03
89153,2.46,2.03
89153,2.46,2.03
89153,2.46,2.03
89154,2.47,2.03
89154,2.47,2.02
89154,2.47,2.03
89154,2.47,2.03
89155,2.47,2.03
89155,2.48,2.03
89155,2.48,2.03
89156,2.47,2.02
89156,2.49,2.02
89156,2.48,2.02
89157,2.47,2.02
89157,2.47,2.02
89157,2.47,2.02
89157,2.46,2.02
89158,2.47,2.02
89158,2.47,2.02
89158,2.47,2.01
89159,2.46,2.02
89159,2.47,2.02
89159,2.47,2.02
89160,2.47,2.02
89160,2.47,2.02
89160,2.47,2.02
89160,2.49,2.01
89161,2.49,2.02
89161,2.49,2.01
89161,2.47,2.02
89162,2.48,2.01
89162,2.48,2.01
89162,2.48,2.01
89163,2.47,2.01
89163,2.47,2.01
89163,2.47,2.01
89163,2.46,2.01
89164,2.47,2.01
89164,2.49,2.01
89164,2.49,2.01
89165,2.49,2.01
89165,2.49,2.00
89165,2.49,2.01
89166,2.49,2.01
89166,2.49,2.00
89166,2.49,2.00
89166,2.49,2.00
89167,2.49,2.00
89167,2.47,2.00
89167,2.47,2.00
89168,2.47,2.00
89168,2.47,2.00
89168,2.46,2.00
89169,2.47,2.00
89169,2.46,2.00
89169,2.47,2.00
89170,2.46,2.00
89170,2.47,2.00
89170,2.47,2.00
89170,2.47,2.01
89171,2.47,2.01
89171,2.47,2.01
89171,2.49,2.01
89172,2.49,2.01
89172,2.49,2.01
89172,2.49,2.01
89173,2.49,2.00
89173,2.48,2.01
89173,2.49,2.01
89173,2.48,2.00
89174,2.47,2.00
89174,2.47,2.01
89174,2.47,2.00
89175,2.48,2.01
89175,2.47,2.00
89175,2.47,2.00
89176,2.47,2.00
89176,2.47,2.00
89176,2.47,2.00
89176,2.47,2.00
89177,2.47,2.00
89177,2.47,2.01
89177,2.49,2.00
89178,2.49,2.00
89178,2.49,2.00
89178,2.49,2.00
89179,2.49,2.00
89179,2.49,2.00
89179,2.48,2.00
89179,2.48,2.00
89180,2.47,2.00
89180,2.49,2.00
89180,2.49,2.00
89181,2.48,2.00
89181,2.49,2.00
89181,2.49,2.00
89182,2.49,2.00
89182,2.49,2.00
89182,2.49,2.00
89182,2.49,2.00
89183,2.49,2.00
89183,2.49,2.00
89183,2.50,2.00
89184,2.47,2.00
89184,2.47,2.00
89184,2.47,1.99
89185,2.47,1.99
89185,2.47,1.99
89185,2.47,2.00
89186,2.47,2.00
89186,2.47,1.99
89186,2.46,2.00
89186,2.46,2.00
89187,2.47,2.00
89187,2.49,2.00
89187,2.47,2.00
89188,2.47,2.00
89188,2.49,2.00
89188,2.49,2.00
89189,2.49,2.00
89189,2.49,2.01
89189,2.50,2.00
89189,2.49,2.00
89190,2.49,2.00
89190,2.49,2.00
89190,2.49,2.00
89191,2.47,2.00
89191,2.48,2.00
89191,2.47,2.00
89192,2.47,2.00
89192,2.47,2.00
89192,2.47,2.00
89192,2.48,2.01
89193,2.47,2.00
89193,2.47,2.00
89193,2.49,2.00
89194,2.49,2.00
89194,2.49,2.00
89194,2.49,2.00
89195,2.49,2.00
89195,2.49,2.00
89195,2.49,2.00
89195,2.49,2.00
89196,2.50,2.00
89196,2.49,2.00
89196,2.49,2.00
89197,2.49,2.00
89197,2.49,2.00
89197,2.49,2.00
89198,2.49,2.00
89198,2.49,2.00
89198,2.49,2.00
89198,2.49,2.00
89199,2.51,2.00
89199,2.49,2.00
89199,2.49,2.00
89200,2.49,2.00
89200,2.49,2.00
89200,2.48,2.00
89201,2.48,2.00
89201,2.47,1.99
89201,2.47,2.00
89202,2.47,2.00
89202,2.47,2.00
89202,2.47,2.00
89202,2.47,1.99
89203,2.46,2.00
89203,2.47,2.00
89203,2.48,2.00
89204,2.48,1.99
89204,2.49,2.00
89204,2.49,1.99
89205,2.49,1.99
89205,2.50,1.99
89205,2.50,2.00
89205,2.50,1.99
89206,2.50,2.00
89206,2.50,1.99
89206,2.49,1.99
89207,2.50,1.99
89207,2.50,2.00
89207,2.49,1.99
89208,2.49,1.99
89208,2.49,1.99
89208,2.49,1.99
89208,2.49,1.99
89209,2.49,1.99
89209,2.50,1.99
89209,2.49,1.99
89210,2.50,1.99
89210,2.50,1.99
89210,2.50,1.99
89211,2.50,1.99
89211,2.50,1.99
89211,2.51,1.99
89211,2.51,1.99
89212,2.50,1.99
89212,2.50,1.98
89212,2.51,1.99
89213,2.50,1.99
89213,2.50,1.99
89213,2.51,1.99
89214,2.50,1.99
89214,2.50,1.99
89214,2.51,1.99
89214,2.51,1.98
89215,2.51,1.98
89215,2.52,1.99
89215,2.52,1.99
89216,2.51,1.99
89216,2.51,1.99
89216,2.51,1.98
89217,2.51,1.98
89217,2.51,1.99
89217,2.50,1.98
89218,2.50,1.98
89218,2.50,1.98
89218,2.49,1.99
89218,2.50,1.98
89219,2.49,1.99
89219,2.49,1.98
89219,2.50,1.98
89220,2.50,1.98
89220,2.47,1.98
89220,2.51,1.98
89221,2.50,1.98
89221,2.51,1.98
89221,2.51,1.98
89221,2.52,1.98
89222,2.52,1.98
89222,2.52,1.99
89222,2.52,1.98
89223,2.52,1.98
89223,2.53,1.98
89223,2.52,1.98
89224,2.51,1.98
89224,2.52,1.98
89224,2.52,1.98
89224,2.51,1.98
89225,2.51,1.98
89225,2.51,1.98
89225,2.52,1.98
89226,2.51,1.98
89226,2.52,1.98
89226,2.51,1.98
89227,2.52,1.98
89227,2.53,1.98
89227,2.53,1.98
89227,2.53,1.98
89228,2.53,1.98
89228,2.53,1.98
89228,2.53,1.98
89229,2.53,1.98
89229,2.53,1.98
89229,2.53,1.98
89230,2.53,1.98
89230,2.51,1.98
89230,2.53,1.98
89230,2.53,1.98
89231,2.52,1.98
89231,2.53,1.98
89231,2.54,1.98
89232,2.54,1.98
89232,2.54,1.98
89232,2.54,1.98
89233,2.54,1.98
89233,2.54,1.98
89233,2.53,1.98
89234,2.53,1.97
89234,2.53,1.98
89234,2.53,1.98
89234,2.52,1.97
89235,2.52,1.98
89235,2.52,1.98
89235,2.52,1.97
89236,2.52,1.98
89236,2.52,1.98
89236,2.52,1.98
89237,2.52,1.98
89237,2.53,1.99
89237,2.53,1.99
89237,2.53,2.00
89238,2.54,1.99
89238,2.53,2.00
89238,2.54,2.00
89239,2.53,2.00
89239,2.53,2.00
89239,2.53,2.00
89240,2.54,2.00
89240,2.52,2.00
89240,2.52,2.00
89240,2.52,2.00
89241,2.52,2.00
89241,2.52,2.00
89241,2.51,2.00
89242,2.51,2.00
89242,2.51,2.00
89242,2.51,2.00
89243,2.51,2.01
89243,2.51,2.01
89243,2.51,2.01
89243,2.51,2.00
89244,2.52,2.01
89244,2.52,2.01
89244,2.52,2.01
89245,2.52,2.01
89245,2.52,2.01
89245,2.52,2.01
89246,2.51,2.01
89246,2.51,2.01
89246,2.51,2.01
89246,2.51,2.01
89247,2.50,2.01
89247,2.50,2.01
89247,2.51,2.01
89248,2.51,2.01
89248,2.51,2.01
89248,2.51,2.01
89249,2.51,2.01
89249,2.52,2.01
89249,2.51,2.01
89250,2.52,2.01
89250,2.51,2.01
89250,2.52,2.00
89250,2.49,2.00
89251,2.51,2.01
89251,2.50,2.01
89251,2.49,2.01
89252,2.49,2.00
89252,2.49,2.00
89252,2.49,2.00
89253,2.49,2.01
89253,2.49,2.02
89253,2.49,2.02
89253,2.49,2.02
89254,2.49,2.02
89254,2.49,2.03
89254,2.47,2.03
89255,2.49,2.04
89255,2.48,2.04
89255,2.49,2.04
89256,2.49,2.04
89256,2.46,2.04
89256,2.47,2.04
89256,2.49,2.04
89257,2.47,2.04
89257,2.47,2.05
89257,2.47,2.05
89258,2.47,2.05
89258,2.46,2.04
89258,2.46,2.04
89259,2.46,2.05
89259,2.45,2.04
89259,2.45,2.05
89259,2.45,2.05
89260,2.45,2.05
89260,2.45,2.04
89260,2.45,2.04
89261,2.46,2.05
89261,2.46,2.05
89261,2.45,2.05
89262,2.46,2.04
89262,2.45,2.05
89262,2.46,2.05
89262,2.45,2.04
89263,2.45,2.04
89263,2.45,2.04
89263,2.45,2.04
89264,2.44,2.04
89264,2.45,2.04
89264,2.44,2.04
89265,2.44,2.04
89265,2.45,2.04
89265,2.45,2.04
89266,2.45,2.04
89266,2.45,2.03
89266,2.45,2.04
89266,2.44,2.03
89267,2.44,2.04
89267,2.45,2.04
89267,2.44,2.04
89268,2.44,2.03
89268,2.43,2.03
89268,2.43,2.03
89269,2.43,2.03
89269,2.43,2.03
89269,2.42,2.03
89269,2.42,2.03
89270,2.42,2.04
89270,2.42,2.03
89270,2.42,2.04
89271,2.42,2.04
89271,2.43,2.04
89271,2.43,2.05
89272,2.43,2.05
89272,2.43,2.05
89272,2.43,2.05
89272,2.43,2.05
89273,2.42,2.05
89273,2.43,2.05
89273,2.43,2.05
89274,2.42,2.05
89274,2.42,2.05
89274,2.41,2.05
89275,2.41,2.05
89275,2.41,2.05
89275,2.41,2.05
89275,2.40,2.05
89276,2.40,2.05
89276,2.40,2.05
89276,2.41,2.05
89277,2.41,2.05
89277,2.40,2.04
89277,2.41,2.05
89278,2.41,2.05
89278,2.41,2.04
89278,2.41,2.04
89279,2.41,2.05
89279,2.41,2.04
89279,2.41,2.04
89279,2.40,2.04
89280,2.40,2.04
89280,2.40,2.04
89280,2.40,2.04
89281,2.40,2.04
89281,2.40,2.04
89281,2.40,2.03
89282,2.41,2.03
89282,2.41,2.04
89282,2.41,2.03
89282,2.41,2.03
89283,2.41,2.03
89283,2.40,2.03
89283,2.40,2.03
89284,2.39,2.03
89284,2.40,2.03
89284,2.40,2.03
89285,2.39,2.03
89285,2.39,2.03
89285,2.39,2.02
89285,2.39,2.02
89286,2.39,2.02
89286,2.38,2.02
89286,2.38,2.02
89287,2.38,2.03
89287,2.38,2.03
89287,2.39,2.03
89288,2.39,2.03
89288,2.39,2.03
89288,2.39,2.04
89288,2.40,2.04
89289,2.39,2.04
89289,2.39,2.04
89289,2.40,2.03
89290,2.39,2.04
89290,2.39,2.04
89290,2.39,2.03
89291,2.39,2.03
89291,2.39,2.03
89291,2.39,2.03
89291,2.38,2.03
89292,2.39,2.03
89292,2.37,2.03
89292,2.37,2.03
89293,2.37,2.03
89293,2.38,2.03
89293,2.38,2.03
89294,2.38,2.03
89294,2.39,2.03
89294,2.38,2.03
89294,2.38,2.03
89295,2.38,2.02
89295,2.38,2.03
89295,2.38,2.03
89296,2.38,2.02
89296,2.38,2.02
89296,2.38,2.02
89297,2.38,2.02
89297,2.37,2.02
89297,2.40,2.02
89298,2.38,2.02
89298,2.39,2.02
89298,2.39,2.02
89298,2.38,2.02
89299,2.38,2.02
89299,2.37,2.02
89299,2.38,2.02
89300,2.38,2.02
89300,2.38,2.02
89300,2.38,2.02
89301,2.38,2.02
89301,2.37,2.02
89301,2.37,2.02
89301,2.36,2.01
89302,2.36,2.01
89302,2.36,2.01
89302,2.36,2.01
89303,2.36,2.01
89303,2.36,2.01
89303,2.36,2.01
89304,2.36,2.01
89304,2.37,2.01
89304,2.37,2.02
89304,2.37,2.01
89305,2.38,2.01
89305,2.38,2.01
89305,2.38,2.01
89306,2.38,2.01
89306,2.39,1.99
89306,2.39,2.01
89307,2.38,2.01
89307,2.38,2.01
89307,2.38,2.01
89307,2.38,2.01
89308,2.37,2.01
89308,2.38,2.01
89308,2.37,2.00
89309,2.37,2.01
89309,2.38,2.01
89309,2.37,2.01
89310,2.37,2.00
89310,2.38,2.01
89310,2.38,2.00
89311,2.39,2.01
89311,2.39,2.00
89311,2.39,2.00
89311,2.39,2.00
89312,2.39,2.00
89312,2.39,2.00
89312,2.38,2.00
89313,2.37,2.00
89313,2.38,2.00
89313,2.38,2.00
89314,2.38,2.00
89314,2.38,2.00
89314,2.39,2.00
89314,2.39,2.00
89315,2.39,2.00
89315,2.39,2.00
89315,2.39,2.00
89316,2.40,2.00
89316,2.39,2.00
89316,2.39,2.00
89317,2.39,2.00
89317,2.38,2.00
89317,2.38,2.00
89317,2.38,1.99
89318,2.37,2.00
89318,2.38,1.99
89318,2.37,2.00
89319,2.37,2.00
89319,2.37,2.00
89319,2.37,2.00
89320,2.37,2.00
89320,2.37,1.99
89320,2.38,2.00
89320,2.38,1.99
89321,2.38,2.00
89321,2.39,2.00
89321,2.39,2.00
89322,2.38,2.00
89322,2.39,2.00
89322,2.39,2.00
89323,2.40,2.00
89323,2.40,2.00
89323,2.40,2.00
89323,2.40,2.00
89324,2.39,2.00
89324,2.39,2.00
89324,2.39,2.00
89325,2.39,2.00
89325,2.39,2.00
89325,2.39,1.99
89326,2.39,2.00
89326,2.39,2.00
89326,2.39,2.00
89326,2.40,1.99
89327,2.40,2.00
89327,2.40,1.99
89327,2.40,1.99
89328,2.40,1.99
89328,2.40,2.00
89328,2.40,1.99
89329,2.40,1.99
89329,2.39,1.99
89329,2.39,2.00
89330,2.39,1.99
89330,2.39,1.99
89330,2.40,1.99
89330,2.39,1.99
89331,2.40,1.99
89331,2.40,1.99
89331,2.40,1.99
89332,2.39,1.99
89332,2.41,1.99
89332,2.41,1.99
89333,2.41,1.99
89333,2.41,1.99
89333,2.41,1.99
89333,2.40,1.99
89334,2.40,1.99
89334,2.40,1.99
89334,2.39,1.99
89335,2.40,1.98
89335,2.39,1.99
89335,2.39,1.99
89336,2.38,1.99
89336,2.39,1.99
89336,2.38,1.99
89336,2.38,1.99
89337,2.39,1.99
89337,2.39,2.00
89337,2.39,1.99
89338,2.40,2.00
89338,2.41,1.98
89338,2.40,2.00
89339,2.41,2.00
89339,2.41,2.00
89339,2.41,2.00
89339,2.40,2.00
89340,2.40,2.00
89340,2.40,2.00
89340,2.40,2.00
89341,2.40,2.00
89341,2.40,2.00
89341,2.40,2.00
89342,2.40,2.00
89342,2.39,2.00
89342,2.37,2.00
89343,2.39,2.00
89343,2.39,2.00
89343,2.39,2.00
89343,2.40,2.00
89344,2.40,2.00
89344,2.40,2.00
89344,2.40,2.00
89345,2.41,2.00
89345,2.40,2.00
89345,2.41,2.00
89346,2.41,2.00
89346,2.40,2.00
89346,2.40,2.00
89346,2.40,2.00
89347,2.40,1.99
89347,2.41,2.00
89347,2.40,2.00
89348,2.41,2.00
89348,2.41,2.00
89348,2.41,2.00
89349,2.41,2.00
89349,2.41,2.00
89349,2.41,2.00
89349,2.41,2.00
89350,2.41,2.00
89350,2.41,1.99
89350,2.40,1.99
89351,2.40,2.00
89351,2.40,1.99
89351,2.39,2.00
89352,2.39,1.99
89352,2.39,1.99
89352,2.39,1.99
89352,2.39,1.99
89353,2.39,2.00
89353,2.39,2.00
89353,2.40,2.00
89354,2.39,2.00
89354,2.39,2.00
89354,2.40,2.00
89355,2.40,2.00
89355,2.41,2.00
89355,2.41,2.00
89355,2.41,2.00
89356,2.41,2.01
89356,2.41,2.00
89356,2.41,2.00
89357,2.40,2.01
89357,2.40,2.00
89357,2.40,2.01
89358,2.40,2.00
89358,2.40,2.00
89358,2.39,2.00
89358,2.39,2.00
89359,2.39,2.00
89359,2.39,2.00
89359,2.39,2.01
89360,2.39,2.00
89360,2.39,2.00
89360,2.40,2.00
89361,2.39,2.00
89361,2.41,2.00
89361,2.40,2.01
89362,2.40,2.00
89362,2.41,2.00
89362,2.40,2.00
89362,2.40,2.00
89363,2.40,2.00
89363,2.39,2.00
89363,2.39,2.00
89364,2.40,2.00
89364,2.40,2.00
89364,2.41,2.00
89365,2.42,2.00
89365,2.41,2.00
89365,2.41,2.00
89365,2.40,2.00
89366,2.40,2.00
89366,2.41,2.00
89366,2.41,2.00
89367,2.40,2.00
89367,2.41,2.00
89367,2.40,2.00
89368,2.39,2.00
89368,2.39,2.00
89368,2.39,2.00
89368,2.39,2.00
89369,2.39,2.00
89369,2.39,2.00
89369,2.38,2.00
89370,2.39,2.00
89370,2.38,2.01
89370,2.39,2.00
89371,2.39,2.01
89371,2.39,2.01
89371,2.39,2.01
89371,2.41,2.01
89372,2.39,2.02
89372,2.40,2.02
89372,2.40,2.02
89373,2.40,2.02
89373,2.40,2.01
89373,2.39,2.02
89374,2.39,2.02
89374,2.39,2.02
89374,2.39,2.02
89374,2.38,2.02
89375,2.38,2.02
89375,2.38,2.02
89375,2.38,2.02
89376,2.37,2.02
89376,2.37,2.02
89376,2.37,2.02
89377,2.37,2.02
89377,2.37,2.02
89377,2.38,2.02
89378,2.38,2.02
89378,2.38,2.02
89378,2.38,2.02
89378,2.39,2.02
89379,2.39,2.02
89379,2.38,2.02
89379,2.38,2.02
89380,2.38,2.02
89380,2.38,2.01
89380,2.37,2.01
89381,2.37,2.01
89381,2.37,2.01
89381,2.37,2.02
89381,2.38,2.01
89382,2.37,2.01
89382,2.38,2.01
89382,2.38,2.01
89383,2.38,2.01
89383,2.38,2.02
89383,2.38,2.01
89384,2.38,2.02
89384,2.38,2.01
89384,2.38,2.01
89384,2.37,2.01
89385,2.37,2.01
89385,2.37,2.01
89385,2.36,2.01
89386,2.37,2.00
89386,2.36,2.01
89386,2.37,2.01
89387,2.36,2.01
89387,2.36,2.02
89387,2.36,2.01
89387,2.36,2.02
89388,2.37,2.02
89388,2.37,2.02
89388,2.37,2.03
89389,2.37,2.03
89389,2.37,2.02
89389,2.37,2.03
89390,2.37,2.03
89390,2.37,2.03
89390,2.37,2.03
89390,2.37,2.03
89391,2.37,2.03
89391,2.37,2.03
89391,2.37,2.03
89392,2.36,2.03
89392,2.36,2.03
89392,2.36,2.03
89393,2.35,2.03
89393,2.35,2.03
89393,2.34,2.03
89394,2.34,2.03
89394,2.35,2.02
89394,2.34,2.03
89394,2.35,2.03
89395,2.35,2.02
89395,2.36,2.03
89395,2.36,2.03
89396,2.36,2.03
89396,2.37,2.02
89396,2.36,2.03
89397,2.37,2.02
89397,2.37,2.02
89397,2.36,2.02
89397,2.36,2.02
89398,2.36,2.02
89398,2.36,2.02
89398,2.36,2.02
89399,2.36,2.02
89399,2.35,2.02
89399,2.35,2.02
89400,2.34,2.02
89400,2.33,2.02
89400,2.34,2.02
89400,2.35,2.02
89401,2.34,2.02
89401,2.35,2.02
89401,2.35,2.02
89402,2.35,2.02
89402,2.35,2.02
89402,2.35,2.01
89403,2.35,2.01
89403,2.34,2.01
89403,2.35,2.01
89403,2.35,2.02
89404,2.35,2.02
89404,2.35,2.02
89404,2.35,2.02
89405,2.35,2.01
89405,2.35,2.01
89405,2.35,2.01
89406,2.36,2.01
89406,2.35,2.01
89406,2.36,2.01
89406,2.36,2.01
89407,2.36,2.01
89407,2.37,2.01
89407,2.36,2.01
89408,2.36,2.01
89408,2.36,2.01
89408,2.36,2.01
89409,2.36,2.01
89409,2.36,2.01
89409,2.36,2.00
89410,2.37,2.01
89410,2.36,2.01
89410,2.36,2.00
89410,2.36,2.00
89411,2.36,2.01
89411,2.36,2.00
89411,2.37,2.01
89412,2.37,2.00
89412,2.37,2.00
89412,2.37,2.00
89413,2.36,2.00
89413,2.36,2.00
89413,2.36,2.00
89413,2.36,2.00
89414,2.37,2.00
89414,2.36,2.00
89414,2.38,2.00
89415,2.36,2.00
89415,2.37,2.00
89415,2.37,2.00
89416,2.37,2.00
89416,2.37,2.00
89416,2.37,2.00
89416,2.35,2.00
89417,2.37,2.00
89417,2.37,2.00
89417,2.36,2.00
89418,2.36,1.99
89418,2.36,1.99
89418,2.36,2.00
89419,2.35,1.99
89419,2.35,2.00
89419,2.37,2.00
89419,2.35,2.00
89420,2.36,2.00
89420,2.36,1.99
89420,2.36,2.00
89421,2.36,2.00
89421,2.36,2.00
89421,2.37,2.00
89422,2.37,2.00
89422,2.38,2.00
89422,2.38,2.00
89422,2.38,2.00
89423,2.37,2.00
89423,2.37,2.00
89423,2.37,2.00
89424,2.38,2.00
89424,2.37,2.00
89424,2.37,2.00
89425,2.37,2.00
89425,2.37,2.00
89425,2.37,2.00
89425,2.36,2.00
89426,2.37,1.99
89426,2.37,2.00
89426,2.37,2.00
89427,2.37,2.00
89427,2.37,2.00
89427,2.38,1.99
89428,2.38,2.00
89428,2.39,2.00
89428,2.39,2.00
89429,2.38,2.00
89429,2.37,2.00
89429,2.38,1.99
89429,2.37,2.00
89430,2.37,2.00
89430,2.38,1.99
89430,2.38,1.99
89431,2.38,1.99
89431,2.38,2.00
89431,2.38,1.99
89432,2.38,2.00
89432,2.40,1.99
89432,2.38,1.99
89432,2.39,1.99
89433,2.38,1.99
89433,2.38,1.99
89433,2.39,1.99
89434,2.38,1.99
89434,2.38,1.99
89434,2.38,1.99
89435,2.38,1.99
89435,2.37,1.99
89435,2.37,1.99
89435,2.37,1.99
89436,2.37,1.99
89436,2.37,1.99
89436,2.37,1.99
89437,2.37,2.00
89437,2.37,2.00
89437,2.37,2.00
89438,2.38,2.00
89438,2.37,2.00
89438,2.38,2.01
89438,2.38,2.00
89439,2.38,2.00
89439,2.39,2.01
89439,2.38,2.01
89440,2.38,2.01
89440,2.38,2.01
89440,2.40,2.01
89441,2.38,2.01
89441,2.38,2.01
89441,2.37,2.00
89442,2.36,2.01
89442,2.37,2.01
89442,2.37,2.01
89442,2.36,2.01
89443,2.36,2.01
89443,2.37,2.01
89443,2.36,2.01
89444,2.36,2.01
89444,2.37,2.01
89444,2.37,2.01
89445,2.36,2.01
89445,2.37,2.01
89445,2.38,2.01
89445,2.37,2.01
89446,2.38,2.00
89446,2.37,2.01
89446,2.37,2.00
89447,2.37,2.01
89447,2.36,2.01
89447,2.37,2.01
89448,2.37,2.01
89448,2.37,2.00
89448,2.37,2.00
89448,2.37,2.00
89449,2.37,2.00
89449,2.37,2.00
89449,2.38,2.00
89450,2.38,2.00
89450,2.38,2.00
89450,2.38,2.01
89451,2.37,2.00
89451,2.37,2.00
89451,2.37,2.00
89451,2.37,2.00
89452,2.37,2.00
89452,2.36,2.00
89452,2.37,2.00
89453,2.36,2.00
89453,2.36,2.00
89453,2.36,2.00
89454,2.36,2.00
89454,2.36,2.01
89454,2.36,2.01
89454,2.36,2.01
89455,2.36,2.02
89455,2.37,2.02
89455,2.37,2.02
89456,2.37,2.02
89456,2.37,2.02
89456,2.37,2.02
89457,2.37,2.02
89457,2.37,2.02
89457,2.36,2.02
89458,2.38,2.03
89458,2.36,2.02
89458,2.36,2.02
89458,2.38,2.02
89459,2.35,2.02
89459,2.35,2.02
89459,2.35,2.02
89460,2.35,2.02
89460,2.35,2.02
89460,2.34,2.02
89461,2.34,2.02
89461,2.35,2.02
89461,2.35,2.02
89461,2.35,2.02
89462,2.36,2.02
89462,2.36,2.02
89462,2.36,2.02
89463,2.36,2.02
89463,2.36,2.02
89463,2.36,2.02
89464,2.36,2.02
89464,2.36,2.02
89464,2.36,2.02
89464,2.35,2.02
89465,2.36,2.02
89465,2.35,2.02
89465,2.35,2.02
89466,2.35,2.01
89466,2.34,2.02
89466,2.35,2.02
89467,2.34,2.02
89467,2.34,2.02
89467,2.35,2.01
89467,2.35,2.02
89468,2.35,2.01
89468,2.35,2.01
89468,2.35,2.01
89469,2.35,2.01
89469,2.35,2.01
89469,2.35,2.01
89470,2.34,2.01
89470,2.34,2.01
89470,2.34,2.01
89470,2.35,2.01
89471,2.34,2.01
89471,2.34,2.01
89471,2.34,2.01
89472,2.35,2.01
89472,2.35,2.01
89472,2.35,2.01
89473,2.36,2.01
89473,2.36,2.01
89473,2.36,2.01
89474,2.37,2.00
89474,2.36,2.01
89474,2.36,2.01
89474,2.36,2.00
89475,2.36,2.01
89475,2.36,2.00
89475,2.36,2.00
89476,2.36,2.00
89476,2.37,2.00
89476,2.36,2.00
89477,2.36,2.00
89477,2.36,2.00
89477,2.35,2.00
89477,2.36,2.00
89478,2.36,2.00
89478,2.36,2.00
89478,2.36,2.00
89479,2.37,2.01
89479,2.37,2.00
89479,2.36,2.00
89480,2.37,2.00
89480,2.37,2.00
89480,2.36,2.00
89480,2.36,2.00
89481,2.36,2.00
89481,2.36,2.00
89481,2.37,2.00
89482,2.37,2.00
89482,2.37,2.00
89482,2.37,2.00
89483,2.37,1.99
89483,2.37,2.00
89483,2.37,2.00
89483,2.37,1.99
89484,2.37,2.00
89484,2.37,2.00
89484,2.37,1.99
89485,2.36,1.99
89485,2.36,1.99
89485,2.35,2.00
89486,2.36,1.99
89486,2.35,1.99
89486,2.35,2.00
89486,2.35,1.99
89487,2.35,2.00
89487,2.35,2.00
89487,2.35,2.01
89488,2.36,2.01
89488,2.36,2.01
89488,2.36,2.01
89489,2.37,2.01
89489,2.37,2.01
89489,2.36,2.01
89489,2.36,2.02
89490,2.37,2.02
89490,2.36,2.01
89490,2.37,2.02
89491,2.36,2.01
89491,2.36,2.02
89491,2.36,2.02
89492,2.36,2.02
89492,2.35,2.02
89492,2.35,2.01
89493,2.34,2.01
89493,2.34,2.01
89493,2.34,2.02
89493,2.34,2.02
89494,2.34,2.02
89494,2.34,2.02
89494,2.34,2.01
89495,2.35,2.02
89495,2.35,2.02
89495,2.36,2.02
89496,2.35,2.02
89496,2.36,2.02
89496,2.36,2.02
89496,2.36,2.01
89497,2.36,2.01
89497,2.36,2.02
89497,2.35,2.02
89498,2.35,2.01
89498,2.35,2.02
89498,2.34,2.01
89499,2.34,2.01
89499,2.34,2.01
89499,2.34,2.01
89499,2.34,2.01
89500,2.34,2.01
89500,2.35,2.01
89500,2.36,2.01
89501,2.35,2.01
89501,2.35,2.01
89501,2.35,2.01
89502,2.34,2.01
89502,2.35,2.01
89502,2.35,2.01
89502,2.34,2.01
89503,2.32,2.01
89503,2.34,2.01
89503,2.34,2.00
89504,2.33,2.01
89504,2.33,2.00
89504,2.34,2.00
89505,2.36,2.01
89505,2.34,2.01
89505,2.34,2.01
89506,2.36,2.00
89506,2.36,2.00
89506,2.36,2.00
89506,2.36,2.00
89507,2.36,2.00
89507,2.36,2.00
89507,2.37,2.00
89508,2.36,2.00
89508,2.36,2.00
89508,2.36,2.00
89509,2.36,2.00
89509,2.36,2.00
89509,2.35,2.00
89509,2.35,2.00
89510,2.36,2.00
89510,2.36,2.00
89510,2.35,2.00
89511,2.36,2.00
89511,2.36,2.00
89511,2.37,2.00
89512,2.37,2.00
89512,2.37,2.00
89512,2.36,2.00
89512,2.37,2.00
89513,2.35,2.00
89513,2.37,2.00
89513,2.37,2.00
89514,2.36,2.00
89514,2.37,2.00
89514,2.37,2.00
89515,2.36,2.00
89515,2.37,2.00
89515,2.36,1.99
89515,2.36,2.00
89516,2.36,1.99
89516,2.36,2.00
89516,2.36,2.00
89517,2.36,1.99
89517,2.36,1.99
89517,2.37,1.99
89518,2.37,2.00
89518,2.37,1.99
89518,2.36,2.00
89518,2.37,2.00
89519,2.36,1.99
89519,2.37,2.00
89519,2.36,1.99
89520,2.36,1.99
89520,2.36,1.99
89520,2.36,1.99
89521,2.35,1.99
89521,2.36,1.99
89521,2.36,1.99
89521,2.37,1.99
89522,2.37,2.00
89522,2.38,1.99
89522,2.37,2.00
89523,2.39,1.99
89523,2.38,1.99
89523,2.38,1.99
89524,2.39,1.99
89524,2.39,1.99
89524,2.38,1.99
89525,2.38,1.99
89525,2.39,1.99
89525,2.38,1.99
89525,2.38,1.99
89526,2.38,1.99
89526,2.37,1.98
89526,2.37,1.98
89527,2.38,1.98
89527,2.38,1.99
89527,2.38,1.99
89528,2.37,1.98
89528,2.39,1.98
89528,2.39,1.98
89528,2.39,1.98
89529,2.39,1.98
89529,2.39,1.98
89529,2.39,1.99
89530,2.39,1.98
89530,2.39,1.99
89530,2.39,1.98
89531,2.39,1.98
89531,2.39,1.99
89531,2.39,1.98
89531,2.39,1.98
89532,2.39,1.98
89532,2.38,1.98
89532,2.39,1.98
89533,2.39,1.98
89533,2.39,1.98
89533,2.39,1.98
89534,2.40,1.98
89534,2.39,1.98
89534,2.40,1.98
89534,2.40,1.99
89535,2.39,1.98
89535,2.39,1.98
89535,2.38,1.99
89536,2.39,1.98
89536,2.39,1.98
89536,2.39,1.98
89537,2.39,1.98
89537,2.39,1.98
89537,2.39,1.98
89538,2.40,1.99
89538,2.39,1.99
89538,2.39,1.99
89538,2.39,2.00
89539,2.40,1.99
89539,2.40,2.00
89539,2.40,2.00
89540,2.40,2.00
89540,2.40,2.00
89540,2.40,2.00
89541,2.40,2.00
89541,2.40,2.00
89541,2.40,2.00
89541,2.40,2.00
89542,2.40,2.00
89542,2.39,2.00
89542,2.39,2.00
89543,2.39,2.00
89543,2.38,2.00
89543,2.38,2.00
89544,2.39,2.00
89544,2.38,2.00
89544,2.39,2.00
89544,2.39,2.00
89545,2.38,2.00
89545,2.39,2.00
89545,2.39,2.00
89546,2.40,2.00
89546,2.40,2.01
89546,2.40,2.00
89547,2.40,2.00
89547,2.40,2.00
89547,2.40,2.00
89547,2.40,2.00
89548,2.38,2.00
89548,2.39,2.00
89548,2.39,2.00
89549,2.39,2.00
89549,2.39,2.00
89549,2.39,2.00
89550,2.38,2.00
89550,2.38,2.00
89550,2.38,2.00
89550,2.39,2.00
89551,2.39,2.00
89551,2.39,2.00
89551,2.39,2.00
89552,2.39,2.00
89552,2.39,2.00
89552,2.39,2.00
89553,2.39,2.00
89553,2.39,2.00
89553,2.39,2.00
89554,2.39,2.00
89554,2.38,2.00
89554,2.39,2.00
89554,2.39,2.00
89555,2.39,2.00
89555,2.39,2.00
89555,2.39,2.00
89556,2.40,2.00
89556,2.40,2.00
89556,2.40,2.00
89557,2.40,2.00
89557,2.40,2.00
89557,2.41,2.00
89557,2.41,2.00
89558,2.41,2.00
89558,2.41,2.00
89558,2.40,2.00
89559,2.40,2.00
89559,2.40,1.99
89559,2.40,1.99
89560,2.40,1.99
89560,2.39,1.99
89560,2.40,1.99
89560,2.40,1.99
89561,2.40,1.99
89561,2.40,1.99
89561,2.41,1.99
89562,2.41,1.99
89562,2.41,1.99
89562,2.41,1.99
89563,2.41,2.00
89563,2.41,1.99
89563,2.41,1.99
89563,2.41,1.99
89564,2.41,1.99
89564,2.41,1.99
89564,2.40,1.99
89565,2.41,1.99
89565,2.40,1.99
89565,2.41,1.99
89566,2.41,1.99
89566,2.41,1.99
89566,2.42,1.99
89566,2.42,1.99
89567,2.41,1.99
89567,2.42,1.99
89567,2.41,1.99
89568,2.41,1.99
89568,2.41,1.99
89568,2.41,1.99
89569,2.41,1.99
89569,2.41,1.99
89569,2.41,1.99
89570,2.40,1.98
89570,2.39,1.99
89570,2.40,1.99
89570,2.39,2.00
89571,2.40,2.00
89571,2.40,2.00
89571,2.40,2.00
89572,2.39,2.01
89572,2.41,2.01
89572,2.41,2.01
89573,2.41,2.01
89573,2.41,2.01
89573,2.41,2.01
89573,2.41,2.02
89574,2.41,2.01
89574,2.41,2.01
89574,2.40,2.02
89575,2.41,2.02
89575,2.40,2.01
89575,2.39,2.02
89576,2.39,2.01
89576,2.39,2.01
89576,2.38,2.02
89576,2.39,2.02
89577,2.38,2.02
89577,2.37,2.01
89577,2.38,2.01
89578,2.38,2.01
89578,2.39,2.02
89578,2.39,2.02
89579,2.39,2.02
89579,2.39,2.02
89579,2.41,2.02
89579,2.40,2.02
89580,2.38,2.01
89580,2.39,2.02
89580,2.40,2.01
89581,2.39,2.01
89581,2.39,2.01
89581,2.39,2.02
89582,2.39,2.01
89582,2.41,2.01
89582,2.39,2.01
89582,2.39,2.01
89583,2.38,2.01
89583,2.39,2.01
89583,2.38,2.01
89584,2.39,2.01
89584,2.39,2.01
89584,2.38,2.01
89585,2.39,2.01
89585,2.39,2.01
89585,2.39,2.01
89586,2.39,2.01
89586,2.38,2.00
89586,2.38,2.00
89586,2.38,2.00
89587,2.39,2.01
89587,2.38,2.01
89587,2.39,2.01
89588,2.38,2.01
89588,2.38,2.01
89588,2.38,2.01
89589,2.39,2.01
89589,2.39,2.01
89589,2.39,2.01
89589,2.39,2.01
89590,2.40,2.00
89590,2.42,2.01
89590,2.40,2.00
89591,2.40,2.00
89591,2.40,2.00
89591,2.40,2.00
89592,2.40,2.00
89592,2.39,2.00
89592,2.40,2.00
89592,2.39,2.00
89593,2.39,2.00
89593,2.39,2.00
89593,2.39,2.00
89594,2.39,2.00
89594,2.39,2.00
89594,2.40,2.00
89595,2.40,2.00
89595,2.40,2.00
89595,2.41,2.00
89595,2.41,2.00
89596,2.40,2.00
89596,2.40,2.00
89596,2.40,2.00
89597,2.40,2.00
89597,2.40,2.00
89597,2.40,2.00
89598,2.40,2.00
89598,2.38,2.00
89598,2.40,2.00
89598,2.40,2.00
89599,2.40,1.99
89599,2.40,1.99
89599,2.42,2.00
89600,2.41,2.00
89600,2.41,2.00
89600,2.41,2.00
89601,2.41,2.00
89601,2.40,1.99
89601,2.40,2.00
89602,2.40,1.99
89602,2.39,2.00
89602,2.40,2.00
89602,2.39,1.99
89603,2.39,1.99
89603,2.39,1.99
89603,2.39,2.00
89604,2.39,2.00
89604,2.39,2.01
89604,2.39,2.00
89605,2.39,2.01
89605,2.40,2.01
89605,2.40,2.01
89605,2.39,2.02
89606,2.40,2.02
89606,2.41,2.02
89606,2.39,2.02
89607,2.40,2.02
89607,2.39,2.02
89607,2.38,2.02
89608,2.39,2.02
89608,2.39,2.02
89608,2.39,2.02
89608,2.39,2.02
89609,2.38,2.02
89609,2.38,2.02
89609,2.37,2.02
89610,2.38,2.02
89610,2.37,2.02
89610,2.37,2.02
89611,2.37,2.02
89611,2.37,2.02
89611,2.37,2.02
89611,2.37,2.02
89612,2.38,2.02
89612,2.39,2.02
89612,2.38,2.02
89613,2.38,2.02
89613,2.39,2.01
89613,2.40,2.02
89614,2.38,2.02
89614,2.38,2.02
89614,2.37,2.02
89614,2.38,2.02
89615,2.38,2.01
89615,2.39,2.01
89615,2.37,2.02
89616,2.37,2.01
89616,2.37,2.01
89616,2.37,2.02
89617,2.37,2.01
89617,2.37,2.02
89617,2.37,2.02
89618,2.37,2.02
89618,2.38,2.01
89618,2.38,2.01
89618,2.37,2.01
89619,2.37,2.01
89619,2.37,2.01
89619,2.37,2.01
89620,2.36,2.01
89620,2.36,2.01
89620,2.36,2.01
89621,2.37,2.01
89621,2.36,2.01
89621,2.37,2.01
89621,2.37,2.01
89622,2.37,2.01
89622,2.37,2.01
89622,2.38,2.01
89623,2.38,2.01
89623,2.38,2.01
89623,2.38,2.01
89624,2.39,2.01
89624,2.38,2.01
89624,2.38,2.00
89624,2.38,2.01
89625,2.38,2.00
89625,2.38,2.00
89625,2.38,2.01
89626,2.38,2.00
89626,2.37,2.01
89626,2.37,2.00
89627,2.37,2.00
89627,2.37,2.00
89627,2.37,2.00
89627,2.38,2.00
89628,2.39,2.00
89628,2.39,2.00
89628,2.39,2.00
89629,2.39,2.00
89629,2.39,2.01
89629,2.39,2.00
89630,2.39,2.00
89630,2.39,2.00
89630,2.38,2.00
89630,2.39,2.00
89631,2.38,2.00
89631,2.38,2.00
89631,2.38,2.00
89632,2.38,2.00
89632,2.39,2.00
89632,2.39,2.00
89633,2.39,2.00
89633,2.39,2.00
89633,2.39,2.00
89634,2.39,2.00
89634,2.39,1.99
89634,2.39,1.99
89634,2.39,1.99
89635,2.39,2.00
89635,2.39,1.99
89635,2.39,1.99
89636,2.38,2.00
89636,2.38,1.99
89636,2.37,1.99
89637,2.38,2.00
89637,2.37,2.00
89637,2.37,2.00
89637,2.38,2.00
89638,2.38,2.00
89638,2.38,2.00
89638,2.40,2.01
89639,2.38,2.00
89639,2.39,2.01
89639,2.39,2.01
89640,2.39,2.00
89640,2.39,2.01
89640,2.39,2.01
89640,2.40,2.01
89641,2.39,2.01
89641,2.39,2.01
89641,2.39,2.01
89642,2.38,2.01
89642,2.38,2.01
89642,2.38,2.01
89643,2.37,2.01
89643,2.37,2.01
89643,2.36,2.01
89643,2.37,2.01
89644,2.36,2.01
89644,2.37,2.01
89644,2.37,2.02
89645,2.38,2.01
89645,2.37,2.01
89645,2.38,2.01
89646,2.38,2.01
89646,2.38,2.01
89646,2.39,2.01
89646,2.40,2.01
89647,2.38,2.01
89647,2.39,2.01
89647,2.39,2.01
89648,2.38,2.01
89648,2.38,2.01
89648,2.37,2.01
89649,2.37,2.00
89649,2.37,2.01
89649,2.37,2.01
89650,2.37,2.00
89650,2.37,2.00
89650,2.37,2.01
89650,2.37,2.01
89651,2.37,2.00
89651,2.38,2.00
89651,2.38,2.01
89652,2.38,2.00
89652,2.37,2.00
89652,2.37,2.00
89653,2.37,2.00
89653,2.37,2.00
89653,2.38,2.00
89653,2.37,2.00
89654,2.37,2.00
89654,2.37,2.00
89654,2.37,2.00
89655,2.37,2.00
89655,2.37,2.00
89655,2.37,2.00
89656,2.38,2.00
89656,2.39,2.00
89656,2.38,2.00
89656,2.39,2.00
89657,2.39,2.00
89657,2.39,2.00
89657,2.39,2.00
89658,2.39,2.00
89658,2.39,2.00
89658,2.39,2.00
89659,2.38,2.00
89659,2.38,2.00
89659,2.37,2.00
89659,2.38,2.00
89660,2.38,2.00
89660,2.38,2.00
89660,2.38,2.00
89661,2.39,1.99
89661,2.39,2.00
89661,2.39,2.00
89662,2.39,1.99
89662,2.39,2.00
89662,2.40,2.00
89662,2.40,2.00
89663,2.39,2.00
89663,2.40,2.00
89663,2.40,1.99
89664,2.39,1.99
89664,2.39,2.00
89664,2.38,1.99
89665,2.39,1.99
89665,2.38,1.99
89665,2.39,1.99
89666,2.39,1.99
89666,2.39,2.00
89666,2.40,1.99
89666,2.39,1.99
89667,2.39,1.99
89667,2.40,1.99
89667,2.40,1.99
89668,2.39,1.99
89668,2.40,1.99
89668,2.39,1.99
89669,2.40,1.99
89669,2.39,1.99
89669,2.38,1.99
89669,2.38,1.99
89670,2.38,1.99
89670,2.38,1.99
89670,2.39,1.99
89671,2.39,1.99
89671,2.38,2.00
89671,2.39,1.99
89672,2.39,2.00
89672,2.39,2.00
89672,2.40,2.00
89672,2.39,2.00
89673,2.40,2.00
89673,2.40,2.00
89673,2.40,2.00
89674,2.40,2.01
89674,2.40,2.01
89674,2.40,2.00
89675,2.40,2.01
89675,2.40,2.00
89675,2.39,2.01
89675,2.39,2.01
89676,2.39,2.00
89676,2.38,2.01
89676,2.38,2.00
89677,2.38,2.00
89677,2.38,2.00
89677,2.38,2.00
89678,2.38,2.00
89678,2.39,2.01
89678,2.38,2.00
89678,2.39,2.01
89679,2.39,2.01
89679,2.39,2.01
89679,2.39,2.00
89680,2.39,2.00
89680,2.40,2.00
89680,2.40,2.00
89681,2.40,2.00
89681,2.39,2.00
89681,2.39,2.00
89682,2.39,2.00
89682,2.39,2.00
89682,2.39,2.00
89682,2.38,2.01
89683,2.39,2.00
89683,2.38,2.00
89683,2.38,2.00
89684,2.38,2.00
89684,2.38,2.00
89684,2.38,2.00
89685,2.39,2.00
89685,2.39,2.00
89685,2.38,2.00
89685,2.39,2.00
89686,2.39,2.00
89686,2.40,2.00
89686,2.38,2.00
89687,2.36,2.00
89687,2.38,2.00
89687,2.38,2.00
89688,2.37,2.00
89688,2.37,2.00
89688,2.38,2.00
89688,2.39,2.00
89689,2.38,2.00
89689,2.39,2.00
89689,2.39,2.00
89690,2.40,2.00
89690,2.39,1.99
89690,2.40,2.00
89691,2.41,2.00
89691,2.40,2.00
89691,2.39,1.99
89691,2.40,2.00
89692,2.41,2.00
89692,2.39,2.00
89692,2.40,2.00
89693,2.40,2.00
89693,2.39,2.00
89693,2.39,2.00
89694,2.39,1.99
89694,2.40,1.99
89694,2.40,2.00
89694,2.40,2.00
89695,2.41,1.99
89695,2.40,1.99
89695,2.40,1.99
89696,2.41,1.99
89696,2.41,1.99
89696,2.41,1.99
89697,2.41,1.99
89697,2.40,1.99
89697,2.39,1.99
89697,2.41,1.99
89698,2.39,1.99
89698,2.40,1.99
89698,2.40,1.99
89699,2.40,1.99
89699,2.40,1.99
89699,2.40,1.99
89700,2.40,1.99
89700,2.40,1.99
89700,2.40,1.99
89701,2.41,1.99
89701,2.40,1.99
89701,2.41,1.99
89701,2.41,1.99
89702,2.41,1.99
89702,2.40,1.99
89702,2.39,1.99
89703,2.39,1.98
89703,2.39,1.99
89703,2.39,1.98
89704,2.39,1.99
89704,2.39,1.99
89704,2.39,1.99
89704,2.39,2.00
89705,2.40,2.00
89705,2.40,2.00
89705,2.40,2.00
89706,2.40,2.00
89706,2.41,2.01
89706,2.41,2.01
89707,2.41,2.01
89707,2.41,2.01
89707,2.40,2.01
89707,2.40,2.01
89708,2.40,2.01
89708,2.40,2.01
89708,2.40,2.01
89709,2.39,2.01
89709,2.39,2.02
89709,2.38,2.01
89710,2.38,2.01
89710,2.38,2.01
89710,2.38,2.01
89710,2.38,2.01
89711,2.38,2.01
89711,2.39,2.01
89711,2.38,2.01
89712,2.39,2.01
89712,2.39,2.01
89712,2.39,2.01
89713,2.40,2.01
89713,2.40,2.01
89713,2.40,2.01
89714,2.39,2.01
89714,2.40,2.01
89714,2.42,2.01
89714,2.40,2.01
89715,2.39,2.01
89715,2.39,2.01
89715,2.39,2.01
89716,2.38,2.01
89716,2.38,2.00
89716,2.38,2.01
89717,2.38,2.01
89717,2.39,2.00
89717,2.38,2.01
89717,2.38,2.01
89718,2.38,2.00
89718,2.39,2.00
89718,2.39,2.00
89719,2.39,2.00
89719,2.39,2.00
89719,2.38,2.01
89720,2.38,2.00
89720,2.38,2.00
89720,2.38,2.00
89720,2.38,2.00
89721,2.38,2.00
89721,2.38,2.00
89721,2.39,2.00
89722,2.37,2.00
89722,2.39,2.00
89722,2.39,2.00
89723,2.40,2.00
89723,2.40,2.00
89723,2.40,2.00
89723,2.40,2.00
89724,2.40,2.00
89724,2.39,2.00
89724,2.40,2.00
89725,2.39,2.00
89725,2.40,2.00
89725,2.40,2.00
89726,2.39,2.00
89726,2.39,2.00
89726,2.39,2.00
89726,2.39,2.00
89727,2.39,2.00
89727,2.39,2.00
89727,2.39,2.00
89728,2.40,2.00
89728,2.40,2.00
89728,2.40,2.00
89729,2.41,2.00
89729,2.41,2.00
89729,2.41,2.00
89730,2.40,1.99
89730,2.40,1.99
89730,2.41,2.00
89730,2.40,2.00
89731,2.40,1.99
89731,2.40,2.00
89731,2.40,1.99
89732,2.39,1.99
89732,2.39,1.99
89732,2.40,1.99
89733,2.40,1.99
89733,2.40,1.99
89733,2.42,2.00
89733,2.41,1.99
89734,2.41,2.00
89734,2.40,1.99
89734,2.40,1.99
89735,2.40,1.99
89735,2.40,1.99
89735,2.40,1.99
89736,2.39,1.99
89736,2.40,1.99
89736,2.39,1.99
89736,2.39,1.99
89737,2.39,1.99
89737,2.39,1.99
89737,2.39,1.99
89738,2.40,2.00
89738,2.40,2.00
89738,2.39,2.01
89739,2.39,2.00
89739,2.40,2.01
89739,2.40,2.01
89739,2.41,2.01
89740,2.40,2.01
89740,2.40,2.01
89740,2.40,2.01
89741,2.40,2.01
89741,2.39,2.03
89741,2.40,2.01
89742,2.40,2.01
89742,2.39,2.01
89742,2.39,2.01
89742,2.39,2.01
89743,2.38,2.01
89743,2.38,2.01
89743,2.37,2.01
89744,2.37,2.01
89744,2.38,2.01
89744,2.38,2.01
89745,2.38,2.01
89745,2.40,2.01
89745,2.39,2.01
89746,2.39,2.01
89746,2.39,2.01
89746,2.39,2.01
89746,2.40,2.01
89747,2.39,2.01
89747,2.39,2.01
89747,2.39,2.01
89748,2.39,2.01
89748,2.39,2.01
89748,2.40,2.01
89749,2.37,2.01
89749,2.38,2.00
89749,2.38,2.01
89749,2.38,2.01
89750,2.38,2.00
89750,2.38,2.01
89750,2.38,2.01
89751,2.38,2.01
89751,2.38,2.01
89751,2.38,2.00
89752,2.39,2.01
89752,2.38,2.01
89752,2.38,2.00
89752,2.38,2.01
89753,2.38,2.00
89753,2.37,2.00
89753,2.38,2.00
89754,2.38,2.00
89754,2.38,2.00
89754,2.37,2.00
89755,2.38,2.00
89755,2.38,2.00
89755,2.38,2.00
89755,2.39,2.00
89756,2.39,2.00
89756,2.39,2.00
89756,2.40,2.00
89757,2.40,2.00
89757,2.40,2.00
89757,2.40,2.00
89758,2.40,2.00
89758,2.40,2.00
89758,2.39,2.00
89758,2.39,2.00
89759,2.39,2.00
89759,2.39,2.00
89759,2.39,2.00
89760,2.39,2.00
89760,2.39,2.00
89760,2.39,2.00
89761,2.39,2.00
89761,2.39,2.00
89761,2.40,2.00
89762,2.40,2.00
89762,2.40,2.00
89762,2.40,1.99
89762,2.40,2.00
89763,2.41,2.00
89763,2.40,2.00
89763,2.40,2.00
89764,2.40,1.99
89764,2.40,1.99
89764,2.39,1.99
89765,2.40,2.00
89765,2.39,1.99
89765,2.39,1.99
89765,2.39,1.99
89766,2.40,1.99
89766,2.40,1.99
89766,2.41,1.99
89767,2.40,1.99
89767,2.41,2.00
89767,2.40,1.99
89768,2.40,1.99
89768,2.40,1.99
89768,2.40,1.99
89768,2.40,1.99
89769,2.39,1.99
89769,2.40,1.99
89769,2.39,1.99
89770,2.39,1.99
89770,2.39,1.99
89770,2.39,1.99
89771,2.39,2.00
89771,2.39,2.00
89771,2.39,2.00
89771,2.39,2.00
89772,2.39,2.01
89772,2.40,2.01
89772,2.40,2.01
89773,2.40,2.01
89773,2.40,2.01
89773,2.40,2.01
89774,2.39,2.01
89774,2.40,2.01
89774,2.39,2.02
89774,2.39,2.02
89775,2.39,2.01
89775,2.39,2.01
89775,2.38,2.01
89776,2.38,2.01
89776,2.37,2.01
89776,2.37,2.01
89777,2.38,2.01
89777,2.37,2.01
89777,2.37,2.02
89778,2.37,2.01
89778,2.39,2.02
89778,2.38,2.02
89778,2.39,2.01
89779,2.39,2.02
89779,2.39,2.01
89779,2.39,2.02
89780,2.39,2.01
89780,2.39,2.01
89780,2.39,2.01
89781,2.39,2.01
89781,2.39,2.01
89781,2.38,2.01
89781,2.38,2.01
89782,2.38,2.01
89782,2.37,2.01
89782,2.37,2.01
89783,2.37,2.01
89783,2.37,2.01
89783,2.37,2.01
89784,2.37,2.01
89784,2.38,2.01
89784,2.37,2.01
89784,2.37,2.01
89785,2.37,2.01
89785,2.38,2.01
89785,2.37,2.01
89786,2.37,2.01
89786,2.38,2.01
89786,2.37,2.00
89787,2.37,2.01
89787,2.37,2.01
89787,2.36,2.00
89787,2.37,2.01
89788,2.37,2.00
89788,2.36,2.01
89788,2.38,2.01
89789,2.38,2.00
89789,2.38,2.01
89789,2.39,2.00
89790,2.40,2.00
89790,2.39,2.00
89790,2.39,2.00
89790,2.39,2.00
89791,2.40,2.00
89791,2.39,2.00
89791,2.39,2.00
89792,2.39,2.00
89792,2.38,2.00
89792,2.38,2.00
89793,2.38,2.00
89793,2.38,2.00
89793,2.38,2.00
89794,2.38,2.00
89794,2.38,2.00
89794,2.39,2.00
89794,2.39,2.00
89795,2.39,2.00
89795,2.39,2.00
89795,2.40,2.00
89796,2.39,2.00
89796,2.39,2.00
89796,2.39,2.00
89797,2.39,2.00
89797,2.39,2.00
89797,2.39,2.00
89797,2.39,2.00
89798,2.39,2.00
89798,2.39,1.99
89798,2.38,2.00
89799,2.39,1.99
89799,2.39,2.00
89799,2.40,2.00
89800,2.40,2.00
89800,2.40,1.99
89800,2.40,2.00
89800,2.40,2.00
89801,2.41,1.99
89801,2.39,1.99
89801,2.39,1.99
89802,2.39,1.99
89802,2.39,1.99
89802,2.38,1.99
89803,2.38,1.99
89803,2.39,1.99
89803,2.38,1.99
89803,2.38,2.00
89804,2.38,2.00
89804,2.38,2.00
89804,2.36,2.00
89805,2.39,2.00
89805,2.39,2.00
89805,2.39,2.01
89806,2.39,2.01
89806,2.39,2.01
89806,2.39,2.01
89806,2.40,2.01
89807,2.39,2.01
89807,2.39,2.01
89807,2.39,2.01
89808,2.39,2.01
89808,2.39,2.01
89808,2.38,2.01
89809,2.38,2.01
89809,2.37,2.01
89809,2.37,2.01
89809,2.37,2.01
89810,2.37,2.01
89810,2.37,2.01
89810,2.37,2.01
89811,2.37,2.01
89811,2.37,2.01
89811,2.38,2.01
89812,2.37,2.01
89812,2.39,2.01
89812,2.38,2.01
89813,2.38,2.01
89813,2.39,2.01
89813,2.39,2.01
89813,2.39,2.00
89814,2.38,2.01
89814,2.39,2.01
89814,2.39,2.01
89815,2.38,2.01
89815,2.38,2.00
89815,2.37,2.00
89816,2.37,2.01
89816,2.38,2.01
89816,2.37,2.01
89816,2.37,2.00
89817,2.38,2.01
89817,2.38,2.00
89817,2.37,2.01
89818,2.38,2.00
89818,2.38,2.00
89818,2.38,2.00
89819,2.38,2.00
89819,2.36,2.00
89819,2.37,2.00
89819,2.37,2.00
89820,2.37,2.00
89820,2.37,2.00
89820,2.37,2.00
89821,2.37,2.00
89821,2.37,2.00
89821,2.37,2.00
89822,2.37,2.00
89822,2.37,2.00
89822,2.38,2.00
89822,2.40,2.00
89823,2.38,2.00
89823,2.39,2.00
89823,2.39,2.00
89824,2.39,2.00
89824,2.39,2.00
89824,2.39,2.00
89825,2.39,2.00
89825,2.39,2.00
89825,2.38,2.00
89826,2.39,2.00
89826,2.38,2.00
89826,2.38,1.99
89826,2.38,1.99
89827,2.38,2.00
89827,2.37,2.00
89827,2.38,1.99
89828,2.38,2.00
89828,2.38,1.99
89828,2.39,2.00
89829,2.39,2.00
89829,2.39,2.00
89829,2.39,1.99
89829,2.39,1.99
89830,2.39,2.00
89830,2.39,1.99
89830,2.39,2.00
89831,2.39,1.99
89831,2.39,1.99
89831,2.38,1.99
89832,2.39,1.99
89832,2.38,1.99
89832,2.39,1.99
89832,2.38,1.99
89833,2.39,1.99
89833,2.39,1.99
89833,2.39,1.99
89834,2.39,1.99
89834,2.40,1.99
89834,2.39,1.99
89835,2.39,1.99
89835,2.39,1.99
89835,2.39,1.99
89835,2.39,1.98
89836,2.39,1.99
89836,2.38,1.98
89836,2.38,1.99
89837,2.38,1.99
89837,2.38,2.00
89837,2.38,1.99
89838,2.38,1.99
89838,2.38,1.99
89838,2.39,1.99
89838,2.39,1.99
89839,2.39,1.99
89839,2.39,1.99
89839,2.40,2.00
89840,2.40,2.00
89840,2.40,1.99
89840,2.40,2.00
89841,2.40,1.99
89841,2.40,1.99
89841,2.40,1.99
89842,2.40,1.99
89842,2.40,1.99
89842,2.39,1.99
89842,2.39,1.99
89843,2.39,1.99
89843,2.39,1.99
89843,2.39,1.99
89844,2.39,1.99
89844,2.39,1.99
89844,2.39,1.99
89845,2.40,1.99
89845,2.39,1.99
89845,2.42,1.99
89845,2.40,1.99
89846,2.40,1.99
89846,2.40,1.99
89846,2.40,1.99
89847,2.40,1.99
89847,2.39,1.99
89847,2.39,1.99
89848,2.40,1.99
89848,2.39,1.99
89848,2.39,1.99
89848,2.39,1.99
89849,2.39,1.99
89849,2.39,1.99
89849,2.39,1.99
89850,2.39,1.99
89850,2.39,1.99
89850,2.40,1.99
89851,2.39,1.99
89851,2.40,1.99
89851,2.40,1.99
89851,2.41,1.99
89852,2.39,1.99
89852,2.39,1.99
89852,2.39,1.99
89853,2.39,1.99
89853,2.39,1.99
89853,2.38,1.99
89854,2.38,1.98
89854,2.39,1.98
89854,2.38,1.99
89854,2.38,1.99
89855,2.39,2.00
89855,2.39,1.99
89855,2.39,2.00
89856,2.40,2.00
89856,2.39,2.00
89856,2.39,2.00
89857,2.39,2.01
89857,2.40,2.00
89857,2.40,2.00
89858,2.40,2.00
89858,2.39,2.01
89858,2.39,2.00
89858,2.39,2.01
89859,2.38,2.00
89859,2.38,2.01
89859,2.37,2.00
89860,2.37,2.00
89860,2.37,2.00
89860,2.37,2.00
89861,2.37,2.00
89861,2.37,2.01
89861,2.37,2.00
89861,2.37,2.00
89862,2.38,2.00
89862,2.38,2.01
89862,2.38,2.01
89863,2.39,2.00
89863,2.38,2.00
89863,2.38,2.00
89864,2.39,2.00
89864,2.39,2.00
89864,2.39,2.00
89864,2.38,2.00
89865,2.38,2.00
89865,2.38,2.00
89865,2.37,2.00
89866,2.37,2.00
89866,2.37,2.00
89866,2.37,2.00
89867,2.36,2.00
89867,2.37,2.00
89867,2.37,2.00
89867,2.37,2.00
89868,2.37,2.00
89868,2.37,2.00
89868,2.37,2.00
89869,2.37,2.00
89869,2.37,1.99
89869,2.37,2.00
89870,2.37,2.00
89870,2.38,2.00
89870,2.36,2.00
89870,2.36,2.00
89871,2.37,2.00
89871,2.37,2.00
89871,2.37,2.00
89872,2.37,2.00
89872,2.37,2.00
89872,2.38,2.00
89873,2.37,2.00
89873,2.38,2.00
89873,2.38,2.00
89874,2.38,2.00
89874,2.38,1.99
89874,2.39,2.00
89874,2.38,2.00
89875,2.38,2.00
89875,2.38,1.99
89875,2.38,1.99
89876,2.38,1.99
89876,2.37,2.00
89876,2.37,1.99
89877,2.37,2.00
89877,2.37,1.99
89877,2.37,1.99
89877,2.37,1.99
89878,2.37,2.00
89878,2.39,1.99
89878,2.39,1.99
89879,2.39,2.00
89879,2.39,1.99
89879,2.39,1.99
89880,2.40,1.99
89880,2.39,1.99
89880,2.39,1.99
89880,2.39,1.99
89881,2.39,1.99
89881,2.39,1.99
89881,2.39,1.99
89882,2.39,1.98
89882,2.38,1.99
89882,2.38,1.98
89883,2.37,1.99
89883,2.38,1.98
89883,2.39,1.99
89883,2.39,1.99
89884,2.39,1.98
89884,2.38,1.99
89884,2.40,1.99
89885,2.39,1.99
89885,2.39,1.99
89885,2.38,1.99
89886,2.39,1.98
89886,2.39,1.98
89886,2.38,1.98
89886,2.39,1.98
89887,2.37,1.99
89887,2.38,1.99
89887,2.38,1.99
89888,2.38,1.99
89888,2.38,1.99
89888,2.38,1.99
89889,2.38,1.99
89889,2.39,1.99
89889,2.39,1.99
89890,2.39,1.99
89890,2.40,1.99
89890,2.40,2.00
89890,2.40,1.99
89891,2.40,1.99
89891,2.39,1.99
89891,2.39,1.99
89892,2.39,1.99
89892,2.39,1.99
89892,2.39,1.99
89893,2.39,1.99
89893,2.37,1.99
89893,2.38,1.99
89893,2.38,1.99
89894,2.37,1.99
89894,2.39,1.99
89894,2.39,1.99
89895,2.38,1.99
89895,2.39,1.99
89895,2.38,1.99
89896,2.40,1.99
89896,2.40,1.99
89896,2.40,1.99
89896,2.40,1.99
89897,2.40,1.99
89897,2.40,1.99
89897,2.39,1.99
89898,2.39,1.98
89898,2.40,1.99
89898,2.39,1.99
89899,2.38,1.99
89899,2.38,1.99
89899,2.38,1.98
89899,2.38,1.99
89900,2.39,1.98
89900,2.39,1.99
89900,2.39,1.99
89901,2.39,1.99
89901,2.39,1.98
89901,2.39,1.98
89902,2.39,1.98
89902,2.39,1.98
89902,2.39,1.99
89902,2.39,1.98
89903,2.38,1.99
89903,2.38,1.98
89903,2.38,1.99
89904,2.38,1.99
89904,2.38,1.98
89904,2.38,1.99
89905,2.40,1.99
89905,2.39,1.98
89905,2.39,1.99
89906,2.39,1.99
89906,2.40,1.99
89906,2.40,1.99
89906,2.40,1.99
89907,2.40,1.99
89907,2.41,1.98
89907,2.40,1.98
89908,2.41,1.98
89908,2.41,1.98
89908,2.40,1.99
89909,2.40,1.98
89909,2.40,1.98
89909,2.39,1.98
89909,2.39,1.99
89910,2.39,1.98
89910,2.39,1.98
89910,2.40,1.98
89911,2.39,1.98
89911,2.40,1.99
89911,2.40,1.98
89912,2.41,1.98
89912,2.40,1.99
89912,2.41,1.99
89912,2.40,1.98
89913,2.40,1.98
89913,2.41,1.98
89913,2.41,1.98
89914,2.41,1.98
89914,2.41,1.98
89914,2.40,1.98
89915,2.40,1.99
89915,2.39,1.99
89915,2.40,1.98
89915,2.40,1.98
89916,2.41,1.98
89916,2.40,1.98
89916,2.41,1.99
89917,2.40,1.98
89917,2.41,1.99
89917,2.41,1.98
89918,2.40,1.98
89918,2.40,1.98
89918,2.41,1.98
89919,2.41,1.98
89919,2.41,1.98
89919,2.40,1.98
89919,2.40,1.99
89920,2.39,1.99
89920,2.40,1.98
89920,2.39,1.98
89921,2.38,1.98
89921,2.39,1.98
89921,2.40,1.98
89922,2.39,1.99
89922,2.41,1.98
89922,2.41,1.98
89922,2.41,1.98
89923,2.42,1.99
89923,2.41,1.98
89923,2.42,1.98
89924,2.42,1.98
89924,2.42,1.98
89924,2.42,1.98
89925,2.41,1.98
89925,2.41,1.98
89925,2.41,1.98
89925,2.41,1.99
89926,2.41,1.99
89926,2.40,1.98
89926,2.41,1.98
89927,2.41,1.98
89927,2.41,1.98
89927,2.41,1.98
89928,2.41,1.98
89928,2.41,1.98
89928,2.42,1.98
89928,2.40,1.98
89929,2.41,1.98
89929,2.43,1.98
89929,2.42,1.98
89930,2.42,1.98
89930,2.42,1.98
89930,2.42,1.98
89931,2.43,1.98
89931,2.42,1.98
89931,2.41,1.98
89931,2.42,1.98
89932,2.42,1.98
89932,2.41,1.98
89932,2.42,1.98
89933,2.42,1.98
89933,2.42,1.98
89933,2.42,1.99
89934,2.42,1.98
89934,2.43,1.98
89934,2.43,1.98
89935,2.42,1.98
89935,2.42,1.98
89935,2.42,1.98
89935,2.42,1.98
89936,2.41,1.98
89936,2.41,1.98
89936,2.42,1.98
89937,2.41,1.98
89937,2.41,1.98
89937,2.41,1.98
89938,2.41,1.98
89938,2.41,1.98
89938,2.42,1.98
89938,2.41,1.99
89939,2.42,1.98
89939,2.43,1.99
89939,2.42,1.99
89940,2.42,1.99
89940,2.43,1.98
89940,2.43,1.99
89941,2.42,1.99
89941,2.42,1.99
89941,2.43,1.99
89941,2.42,1.99
89942,2.41,1.99
89942,2.42,1.99
89942,2.41,1.99
89943,2.41,1.99
89943,2.41,1.99
89943,2.42,1.99
89944,2.42,1.99
89944,2.41,1.99
89944,2.41,1.99
89944,2.42,1.99
89945,2.44,1.99
89945,2.43,2.00
89945,2.43,1.99
89946,2.42,1.99
89946,2.42,1.99
89946,2.42,1.99
89947,2.42,2.00
89947,2.42,1.99
89947,2.42,1.99
89948,2.42,1.99
89948,2.42,1.99
89948,2.42,1.99
89948,2.41,1.99
89949,2.42,1.99
89949,2.42,1.99
89949,2.42,1.99
89950,2.42,1.99
89950,2.42,1.99
89950,2.43,1.99
89951,2.42,1.99
89951,2.42,1.99
89951,2.43,1.99
89951,2.43,1.99
89952,2.43,1.99
89952,2.42,1.99
89952,2.42,1.99
89953,2.41,1.99
89953,2.42,1.99
89953,2.42,1.99
89954,2.41,1.99
89954,2.41,1.99
89954,2.41,1.99
89954,2.42,1.98
89955,2.42,1.98
89955,2.42,1.99
89955,2.42,1.99
89956,2.42,1.99
89956,2.43,1.99
89956,2.43,1.98
89957,2.43,1.99
89957,2.44,1.99
89957,2.44,1.99
89957,2.43,1.99
89958,2.44,1.98
89958,2.43,1.98
89958,2.43,1.99
89959,2.43,1.98
89959,2.42,1.98
89959,2.42,1.99
89960,2.42,1.98
89960,2.43,1.99
89960,2.42,1.98
89961,2.43,1.99
89961,2.43,1.98
89961,2.44,1.98
89961,2.44,1.99
89962,2.43,1.98
89962,2.43,1.99
89962,2.44,1.98
89963,2.44,1.99
89963,2.44,1.99
89963,2.44,1.98
89964,2.43,1.99
89964,2.43,1.98
89964,2.44,1.98
89964,2.44,1.98
89965,2.43,1.98
89965,2.44,1.98
89965,2.43,1.98
89966,2.43,1.98
89966,2.43,1.98
89966,2.44,1.99
89967,2.44,1.98
89967,2.44,1.99
89967,2.44,1.98
89967,2.43,1.98
89968,2.44,1.98
89968,2.45,1.98
89968,2.44,1.98
89969,2.42,1.98
89969,2.44,1.97
89969,2.43,1.98
89970,2.44,1.98
89970,2.44,1.98
89970,2.43,1.98
89970,2.43,1.98
89971,2.43,1.98
89971,2.43,1.99
89971,2.44,1.99
89972,2.44,1.98
89972,2.44,1.98
89972,2.44,1.99
89973,2.45,1.98
89973,2.45,1.99
89973,2.45,1.98
89974,2.45,1.98
89974,2.45,1.99
89974,2.46,1.98
89974,2.45,1.98
89975,2.44,1.98
89975,2.45,1.98
89975,2.44,1.98
89976,2.44,1.98
89976,2.44,1.98
89976,2.44,1.99
89977,2.44,1.98
89977,2.44,1.98
89977,2.45,1.98
89977,2.45,1.98
89978,2.45,1.98
89978,2.46,1.98
89978,2.46,1.98
89979,2.47,1.98
89979,2.46,1.98
89979,2.45,1.98
89980,2.46,1.98
89980,2.44,1.98
89980,2.46,1.98
89980,2.44,1.98
89981,2.45,1.98
89981,2.45,1.98
89981,2.45,1.98
89982,2.44,1.98
89982,2.45,1.98
89982,2.45,1.98
89983,2.45,1.98
89983,2.46,1.98
89983,2.46,1.98
89983,2.46,1.98
89984,2.46,1.99
89984,2.46,1.98
89984,2.46,1.98
89985,2.46,1.98
89985,2.46,1.98
89985,2.46,1.98
89986,2.46,1.98
89986,2.45,1.98
89986,2.44,1.98
89986,2.44,1.98
89987,2.45,1.98
89987,2.45,1.98
89987,2.45,1.98
89988,2.45,1.98
89988,2.45,1.98
89988,2.46,1.98
89989,2.49,1.98
89989,2.46,1.98
89989,2.47,1.98
89990,2.46,1.98
89990,2.47,1.98
89990,2.47,1.98
89990,2.47,1.98
89991,2.47,1.98
89991,2.47,1.98
89991,2.46,1.98
89992,2.46,1.98
89992,2.46,1.98
89992,2.46,1.98
89993,2.45,1.98
89993,2.46,1.98
89993,2.46,1.98
89993,2.46,1.98
89994,2.47,1.98
89994,2.47,1.98
89994,2.47,1.98
89995,2.47,1.98
89995,2.47,1.98
89995,2.47,1.98
89996,2.47,1.97
89996,2.47,1.98
89996,2.49,1.98
89996,2.47,1.98
89997,2.44,1.98
89997,2.47,1.98
89997,2.46,1.98
89998,2.47,1.98
89998,2.47,1.98
89998,2.47,1.98
89999,2.45,1.98
89999,2.47,1.98
89999,2.49,1.98
89999,2.49,1.98
90000,2.48,1.98
90000,2.49,1.98
90000,2.49,1.98
90001,2.49,1.98
90001,2.47,1.97
90001,2.49,1.98
90002,2.47,1.98
90002,2.47,1.98
90002,2.46,1.98
90003,2.47,1.98
90003,2.47,1.98
90003,2.46,1.97
90003,2.46,1.98
90004,2.46,1.98
90004,2.46,1.98
90004,2.47,1.98
90005,2.47,1.98
90005,2.47,1.98
90005,2.49,1.98
90006,2.47,1.98
90006,2.49,1.98
90006,2.50,1.98
90006,2.50,1.98
90007,2.49,1.98
90007,2.50,1.98
90007,2.49,1.98
90008,2.49,1.98
90008,2.49,1.98
90008,2.49,1.98
90009,2.48,1.97
90009,2.49,1.98
90009,2.47,1.98
90009,2.48,1.98
90010,2.47,1.98
90010,2.48,1.98
90010,2.49,1.98
90011,2.50,1.98
90011,2.49,1.98
90011,2.50,1.98
90012,2.50,1.97
90012,2.49,1.98
90012,2.50,1.98
90012,2.49,1.98
90013,2.51,1.98
90013,2.49,1.98
90013,2.49,1.98
90014,2.47,1.98
90014,2.49,1.98
90014,2.49,1.97
90015,2.50,1.98
90015,2.49,1.98
90015,2.50,1.98
90016,2.49,1.98
90016,2.50,1.98
90016,2.50,1.98
90016,2.51,1.98
90017,2.50,1.97
90017,2.51,1.98
90017,2.51,1.98
90018,2.50,1.98
90018,2.50,1.97
90018,2.50,1.98
90019,2.49,1.98
90019,2.50,1.97
90019,2.49,1.98
90019,2.49,1.98
90020,2.49,1.98
90020,2.49,1.98
90020,2.49,1.98
90021,2.49,1.98
90021,2.49,1.98
90021,2.50,1.97
90022,2.50,1.98
90022,2.50,1.98
90022,2.51,1.98
90022,2.52,1.98
90023,2.52,1.98
90023,2.51,1.98
90023,2.52,1.98
90024,2.52,1.98
90024,2.51,1.98
90024,2.51,1.98
90025,2.51,1.97
90025,2.51,1.98
90025,2.51,1.98
90025,2.50,1.98
90026,2.51,1.98
90026,2.51,1.98
90026,2.50,1.97
90027,2.51,1.98
90027,2.52,1.98
90027,2.52,1.98
90028,2.52,1.97
90028,2.52,1.98
90028,2.52,1.98
90029,2.52,1.98
90029,2.52,1.98
90029,2.52,1.98
90029,2.51,1.98
90030,2.52,1.97
90030,2.51,1.98
90030,2.52,1.98
90031,2.52,1.97
90031,2.51,1.98
90031,2.51,1.98
90032,2.51,1.98
90032,2.52,1.98
90032,2.52,1.98
90032,2.52,1.98
90033,2.53,1.98
90033,2.52,1.98
90033,2.53,1.98
90034,2.54,1.98
90034,2.53,1.98
90034,2.52,1.97
90035,2.52,1.98
90035,2.52,1.97
90035,2.51,1.97
90035,2.52,1.97
90036,2.51,1.97
90036,2.51,1.98
90036,2.51,1.98
90037,2.54,1.98
90037,2.51,1.98
90037,2.52,1.98
90038,2.52,1.98
90038,2.52,1.98
90038,2.53,1.98
90038,2.52,1.97
90039,2.53,1.98
90039,2.53,1.98
90039,2.53,1.97
90040,2.53,1.98
90040,2.53,1.98
90040,2.54,1.98
90041,2.53,1.97
90041,2.53,1.98
90041,2.53,1.97
90042,2.53,1.98
90042,2.52,1.98
90042,2.52,1.98
90042,2.53,1.98
90043,2.53,1.97
90043,2.53,1.98
90043,2.53,1.97
90044,2.54,1.98
90044,2.54,1.98
90044,2.54,1.98
90045,2.54,1.98
90045,2.54,1.97
90045,2.54,1.98
90045,2.54,1.98
90046,2.54,1.98
90046,2.54,1.98
90046,2.54,1.98
90047,2.53,1.98
90047,2.54,1.98
90047,2.53,1.98
90048,2.53,1.97
90048,2.53,1.98
90048,2.54,1.97
90048,2.54,1.98
90049,2.54,1.98
90049,2.56,1.97
90049,2.54,1.97
90050,2.55,1.98
90050,2.55,1.98
90050,2.55,1.98
90051,2.54,1.98
90051,2.54,1.97
90051,2.54,1.97
90051,2.54,1.97
90052,2.54,1.98
90052,2.53,1.98
90052,2.53,1.98
90053,2.53,1.98
90053,2.53,1.97
90053,2.53,1.97
90054,2.54,1.98
90054,2.54,1.98
90054,2.54,1.98
90054,2.54,1.98
90055,2.54,1.98
90055,2.55,1.97
90055,2.57,1.97
90056,2.56,1.98
90056,2.55,1.98
90056,2.56,1.98
90057,2.55,1.98
90057,2.54,1.97
90057,2.55,1.97
90058,2.54,1.97
90058,2.54,1.98
90058,2.54,1.97
90058,2.55,1.97
90059,2.55,1.97
90059,2.55,1.98
90059,2.55,1.98
90060,2.55,1.98
90060,2.55,1.97
90060,2.56,1.97
90061,2.56,1.98
90061,2.56,1.98
90061,2.56,1.97
90061,2.57,1.98
90062,2.56,1.98
90062,2.57,1.98
90062,2.56,1.98
90063,2.56,1.98
90063,2.56,1.98
90063,2.56,1.98
90064,2.54,1.98
90064,2.56,1.97
90064,2.55,1.97
90064,2.56,1.97
90065,2.56,1.97
90065,2.56,1.98
90065,2.56,1.97
90066,2.57,1.97
90066,2.57,1.98
90066,2.57,1.97
90067,2.57,1.97
90067,2.57,1.98
90067,2.56,1.97
90067,2.56,1.98
90068,2.56,1.97
90068,2.57,1.97
90068,2.56,1.97
90069,2.55,1.97
90069,2.56,1.98
90069,2.56,1.98
90070,2.55,1.98
90070,2.56,1.98
90070,2.57,1.98
90071,2.56,1.98
90071,2.56,1.97
90071,2.56,1.97
90071,2.57,1.98
90072,2.57,1.97
90072,2.57,1.98
90072,2.58,1.98
90073,2.57,1.97
90073,2.57,1.97
90073,2.57,1.98
90074,2.57,1.97
90074,2.56,1.98
90074,2.57,1.97
90074,2.57,1.98
90075,2.57,1.98
90075,2.56,1.98
90075,2.57,1.98
90076,2.56,1.97
90076,2.57,1.98
90076,2.57,1.98
90077,2.57,1.98
90077,2.57,1.97
90077,2.58,1.98
90077,2.57,1.98
90078,2.59,1.97
90078,2.57,1.98
90078,2.58,1.98
90079,2.58,1.97
90079,2.58,1.98
90079,2.57,1.97
90080,2.57,1.98
90080,2.58,1.97
90080,2.57,1.98
90080,2.58,1.98
90081,2.58,1.98
90081,2.58,1.98
90081,2.57,1.98
90082,2.58,1.97
90082,2.58,1.97
90082,2.57,1.97
90083,2.59,1.97
90083,2.60,1.98
90083,2.59,1.97
90083,2.59,1.97
90084,2.59,1.98
90084,2.59,1.98
90084,2.58,1.98
90085,2.57,1.98
90085,2.57,1.98
90085,2.58,1.98
90086,2.57,1.97
90086,2.57,1.97
90086,2.57,1.97
90087,2.57,1.97
90087,2.58,1.98
90087,2.57,1.97
90087,2.58,1.97
90088,2.58,1.97
90088,2.58,1.97
90088,2.59,1.98
90089,2.59,1.97
90089,2.59,1.98
90089,2.59,1.98
90090,2.59,1.98
90090,2.60,1.98
90090,2.60,1.98
90090,2.59,1.98
90091,2.59,1.98
90091,2.60,1.97
90091,2.59,1.97
90092,2.59,1.97
90092,2.59,1.98
90092,2.59,1.97
90093,2.59,1.98
90093,2.59,1.98
90093,2.59,1.97
90093,2.59,1.97
90094,2.60,1.98
90094,2.59,1.98
90094,2.60,1.98
90095,2.62,1.98
90095,2.60,2.00
90095,2.60,1.98
90096,2.61,1.97
90096,2.60,1.98
90096,2.59,1.98
90096,2.59,1.98
90097,2.62,1.98
90097,2.59,1.98
90097,2.58,1.98
90098,2.59,1.98
90098,2.60,1.98
90098,2.60,1.98
90099,2.60,1.97
90099,2.60,1.97
90099,2.61,1.97
90100,2.61,1.97
90100,2.61,1.98
90100,2.59,1.97
90100,2.61,1.98
90101,2.61,1.98
90101,2.60,1.98
90101,2.60,1.97
90102,2.60,1.97
90102,2.59,1.98
90102,2.59,1.97
90103,2.59,1.97
90103,2.59,1.97
90103,2.59,1.98
90103,2.60,1.98
90104,2.59,1.98
90104,2.60,1.98
90104,2.60,1.98
90105,2.60,1.98
90105,2.61,1.98
90105,2.61,1.97
90106,2.61,1.98
90106,2.62,1.98
90106,2.61,1.98
90106,2.61,1.98
90107,2.61,1.98
90107,2.62,1.98
90107,2.61,1.98
90108,2.61,1.97
90108,2.60,1.98
90108,2.61,1.97
90109,2.60,1.98
90109,2.60,1.98
90109,2.61,1.98
90109,2.60,1.98
90110,2.60,1.98
90110,2.61,1.98
90110,2.62,1.98
90111,2.62,1.98
90111,2.62,1.98
90111,2.62,1.98
90112,2.62,1.98
90112,2.62,1.97
90112,2.62,1.98
90112,2.62,1.98
90113,2.62,1.98
90113,2.62,1.98
90113,2.61,1.97
90114,2.61,1.98
90114,2.61,1.98
90114,2.62,1.98
90115,2.61,1.98
90115,2.61,1.98
90115,2.61,1.98
90116,2.62,1.98
90116,2.63,1.98
90116,2.62,1.98
90116,2.63,1.98
90117,2.63,1.98
90117,2.62,1.98
90117,2.62,1.98
90118,2.63,1.98
90118,2.62,1.98
90118,2.62,1.98
90119,2.61,1.98
90119,2.62,1.98
90119,2.61,1.98
90119,2.61,1.98
90120,2.61,1.98
90120,2.61,1.98
90120,2.60,1.98
90121,2.61,1.98
90121,2.62,1.99
90121,2.61,1.99
90122,2.62,1.99
90122,2.62,1.99
90122,2.62,1.99
90122,2.62,1.99
90123,2.62,1.99
90123,2.62,1.99
90123,2.62,1.99
90124,2.62,1.99
90124,2.62,1.99
90124,2.62,1.99
90125,2.61,1.99
90125,2.61,1.99
90125,2.61,1.99
90125,2.60,1.99
90126,2.61,2.00
90126,2.62,2.00
90126,2.61,1.99
90127,2.61,1.99
90127,2.61,1.99
90127,2.63,1.99
90128,2.62,2.00
90128,2.62,2.00
90128,2.62,1.99
90129,2.62,1.99
90129,2.62,2.00
90129,2.62,2.00
90129,2.61,2.00
90130,2.61,1.99
90130,2.61,1.99
90130,2.61,2.00
90131,2.60,2.00
90131,2.61,2.00
90131,2.60,2.00
90132,2.61,2.00
90132,2.61,2.00
90132,2.62,2.00
90132,2.62,2.00
90133,2.61,1.99
90133,2.62,1.99
90133,2.62,1.99
90134,2.62,2.00
90134,2.62,2.00
90134,2.62,2.00
90135,2.62,1.99
90135,2.61,1.99
90135,2.60,1.99
90135,2.60,1.99
90136,2.60,1.99
90136,2.60,1.99
90136,2.61,2.00
90137,2.60,1.99
90137,2.60,1.99
90137,2.62,2.00
90138,2.60,2.00
90138,2.60,2.00
90138,2.62,2.00
90138,2.61,2.00
90139,2.62,2.00
90139,2.62,2.00
90139,2.63,2.00
90140,2.61,2.00
90140,2.62,1.99
90140,2.61,2.00
90141,2.60,2.00
90141,2.60,2.00
90141,2.60,2.00
90141,2.59,2.00
90142,2.59,2.00
90142,2.59,2.00
90142,2.59,2.00
90143,2.60,2.00
90143,2.60,2.00
90143,2.60,2.00
90144,2.61,2.00
90144,2.60,2.00
90144,2.60,2.00
90145,2.61,2.00
90145,2.61,2.00
90145,2.61,2.00
90145,2.61,2.00
90146,2.61,2.00
90146,2.60,2.00
90146,2.60,2.00
90147,2.60,2.00
90147,2.59,2.00
90147,2.59,2.00
90148,2.60,2.00
90148,2.60,2.00
90148,2.60,2.00
90148,2.59,2.00
90149,2.60,2.00
90149,2.60,2.00
90149,2.61,2.00
90150,2.61,2.00
90150,2.61,2.00
90150,2.61,2.00
90151,2.60,2.00
90151,2.61,2.00
90151,2.60,2.00
90151,2.60,2.00
90152,2.59,2.00
90152,2.59,2.00
90152,2.59,2.00
90153,2.57,2.00
90153,2.59,2.00
90153,2.61,2.00
90154,2.59,2.00
90154,2.59,1.99
90154,2.60,2.00
90154,2.60,1.99
90155,2.60,2.00
90155,2.61,2.00
90155,2.61,2.00
90156,2.61,2.00
90156,2.61,1.99
90156,2.62,2.00
90157,2.60,2.00
90157,2.60,2.00
90157,2.60,1.99
90157,2.60,1.99
90158,2.60,2.00
90158,2.60,1.99
90158,2.60,1.99
90159,2.60,2.00
90159,2.60,1.99
90159,2.60,1.99
90160,2.60,2.00
90160,2.61,1.99
90160,2.61,1.99
90160,2.62,1.99
90161,2.61,1.99
90161,2.62,2.00
90161,2.62,1.99
90162,2.62,1.99
90162,2.62,1.99
90162,2.61,1.99
90163,2.61,1.99
90163,2.60,1.99
90163,2.60,1.99
90164,2.60,1.99
90164,2.60,1.99
90164,2.61,1.99
90164,2.61,1.99
90165,2.60,1.99
90165,2.64,1.99
90165,2.61,1.99
90166,2.61,1.99
90166,2.62,1.99
90166,2.62,1.99
90167,2.63,1.99
90167,2.62,1.99
90167,2.62,1.99
90167,2.62,1.98
90168,2.58,1.98
90168,2.62,1.99
90168,2.62,1.99
90169,2.61,1.99
90169,2.61,1.98
90169,2.61,1.98
90170,2.60,1.99
90170,2.61,1.99
90170,2.61,1.98
90170,2.61,1.99
90171,2.61,1.99
90171,2.61,1.99
90171,2.62,1.99
90172,2.62,1.99
90172,2.62,1.99
90172,2.63,1.99
90173,2.62,1.99
90173,2.62,1.99
90173,2.62,1.99
90173,2.62,1.99
90174,2.62,1.99
90174,2.62,1.99
90174,2.62,1.99
90175,2.61,1.99
90175,2.61,1.99
90175,2.61,1.99
90176,2.61,1.99
90176,2.61,1.99
90176,2.59,1.99
90177,2.62,1.99
90177,2.62,1.99
90177,2.62,1.99
90177,2.62,1.99
90178,2.63,1.99
90178,2.63,1.99
90178,2.63,1.99
90179,2.64,1.99
90179,2.62,1.99
90179,2.62,1.99
90180,2.62,1.99
90180,2.62,1.99
90180,2.61,1.99
90180,2.62,1.99
90181,2.62,1.99
90181,2.61,1.99
90181,2.62,1.99
90182,2.62,1.99
90182,2.62,1.99
90182,2.63,1.99
90183,2.62,1.99
90183,2.62,1.99
90183,2.62,1.99
90183,2.63,1.99
90184,2.63,1.99
90184,2.63,1.99
90184,2.63,1.99
90185,2.62,1.99
90185,2.62,1.99
90185,2.62,1.99
90186,2.62,1.99
90186,2.61,1.99
90186,2.61,1.99
90186,2.61,1.99
90187,2.61,1.99
90187,2.62,2.00
90187,2.62,1.99
90188,2.62,1.99
90188,2.62,2.00
90188,2.62,2.00
90189,2.61,2.00
90189,2.62,2.00
90189,2.63,2.00
90190,2.63,2.00
90190,2.63,2.00
90190,2.62,2.00
90190,2.62,2.00
90191,2.62,2.00
90191,2.62,2.00
90191,2.62,2.00
90192,2.61,2.00
90192,2.61,2.00
90192,2.60,2.00
90193,2.61,2.00
90193,2.61,2.00
90193,2.62,2.00
90193,2.62,2.00
90194,2.62,2.00
90194,2.62,2.00
90194,2.62,2.00
90195,2.63,2.00
90195,2.63,2.00
90195,2.62,2.00
90196,2.62,2.00
90196,2.62,2.00
90196,2.62,2.00
90196,2.62,1.99
90197,2.61,2.00
90197,2.62,2.00
90197,2.62,1.99
90198,2.61,2.00
90198,2.61,2.00
90198,2.62,2.00
90199,2.62,2.00
90199,2.63,2.00
90199,2.63,1.99
90199,2.63,2.00
90200,2.63,2.00
90200,2.63,2.00
90200,2.63,1.99
90201,2.63,1.99
90201,2.62,1.99
90201,2.64,2.00
90202,2.63,2.00
90202,2.62,2.00
90202,2.61,1.99
90202,2.62,1.99
90203,2.61,2.00
90203,2.61,2.00
90203,2.58,1.99
90204,2.62,2.00
90204,2.62,2.00
90204,2.61,2.00
90205,2.62,2.00
90205,2.62,2.00
90205,2.62,2.00
90205,2.63,2.00
90206,2.63,2.00
90206,2.63,2.00
90206,2.63,2.00
90207,2.62,2.00
90207,2.62,2.00
90207,2.62,2.00
90208,2.62,2.00
90208,2.62,2.00
90208,2.62,2.00
90209,2.62,2.00
90209,2.61,2.00
90209,2.62,2.00
90209,2.62,2.00
90210,2.62,1.99
90210,2.62,2.00
90210,2.63,2.00
90211,2.62,2.00
90211,2.64,2.00
90211,2.62,2.00
90212,2.63,2.00
90212,2.63,2.00
90212,2.63,2.00
90212,2.62,2.00
90213,2.62,1.99
90213,2.61,1.99
90213,2.62,2.00
90214,2.61,1.99
90214,2.62,1.99
90214,2.62,2.00
90215,2.62,2.00
90215,2.62,2.00
90215,2.62,1.99
90215,2.62,1.99
90216,2.63,1.99
90216,2.63,2.00
90216,2.63,1.99
90217,2.63,1.99
90217,2.63,1.99
90217,2.63,2.00
90218,2.63,1.99
90218,2.63,1.99
90218,2.62,1.99
90218,2.60,1.99
90219,2.62,1.99
90219,2.62,1.99
90219,2.62,1.99
90220,2.62,1.99
90220,2.61,2.00
90220,2.62,2.00
90221,2.62,2.00
90221,2.62,2.00
90221,2.62,2.00
90221,2.63,2.00
90222,2.63,2.00
90222,2.63,2.00
90222,2.64,2.00
90223,2.62,2.00
90223,2.62,2.00
90223,2.63,2.00
90224,2.62,2.00
90224,2.62,2.00
90224,2.62,2.00
90225,2.61,2.00
90225,2.62,2.00
90225,2.61,2.00
90225,2.62,2.00
90226,2.62,2.00
90226,2.62,2.00
90226,2.62,2.00
90227,2.62,2.00
90227,2.63,2.00
90227,2.63,2.00
90228,2.64,2.00
90228,2.63,2.00
90228,2.63,2.00
90228,2.63,2.00
90229,2.63,2.00
90229,2.62,2.00
90229,2.62,2.00
90230,2.63,2.00
90230,2.62,2.00
90230,2.62,2.00
90231,2.62,2.00
90231,2.62,2.00
90231,2.62,2.00
90231,2.62,2.00
90232,2.62,2.00
90232,2.67,2.00
90232,2.63,2.00
90233,2.63,2.00
90233,2.64,2.00
90233,2.63,2.00
90234,2.63,2.00
90234,2.63,2.00
90234,2.63,1.99
90234,2.63,2.00
90235,2.62,1.99
90235,2.63,2.00
90235,2.62,2.00
90236,2.61,1.99
90236,2.61,1.97
90236,2.62,2.00
90237,2.62,2.00
90237,2.62,2.00
90237,2.62,2.00
90237,2.62,2.00
90238,2.62,2.00
90238,2.64,2.00
90238,2.63,2.00
90239,2.63,2.00
90239,2.63,2.00
90239,2.63,2.00
90240,2.62,1.99
90240,2.62,2.00
90240,2.62,2.00
90241,2.62,2.00
90241,2.61,2.00
90241,2.62,2.00
90241,2.62,2.00
90242,2.62,2.00
90242,2.61,2.00
90242,2.62,2.00
90243,2.62,2.00
90243,2.62,2.00
90243,2.62,2.00
90244,2.63,2.00
90244,2.63,2.00
90244,2.63,2.00
90244,2.63,2.00
90245,2.63,2.00
90245,2.63,2.00
90245,2.62,2.00
90246,2.62,2.00
90246,2.62,2.00
90246,2.62,2.00
90247,2.61,2.00
90247,2.61,2.00
90247,2.61,2.00
90247,2.61,2.00
90248,2.61,2.00
90248,2.62,2.00
90248,2.62,2.00
90249,2.62,2.00
90249,2.62,2.00
90249,2.62,2.00
90250,2.62,2.00
90250,2.63,2.00
90250,2.62,2.00
90250,2.62,2.00
90251,2.62,2.00
90251,2.61,2.00
90251,2.60,2.00
90252,2.61,2.00
90252,2.60,2.00
90252,2.61,2.00
90253,2.60,2.00
90253,2.61,2.00
90253,2.61,2.00
90253,2.60,2.00
90254,2.61,2.00
90254,2.62,2.00
90254,2.62,2.00
90255,2.62,2.00
90255,2.63,2.00
90255,2.63,2.00
90256,2.63,2.00
90256,2.62,2.00
90256,2.62,2.00
90256,2.62,2.00
90257,2.62,2.00
90257,2.62,2.00
90257,2.62,2.00
90258,2.61,2.00
90258,2.61,2.00
90258,2.61,2.00
90259,2.61,2.00
90259,2.63,2.00
90259,2.62,2.00
90260,2.62,2.01
90260,2.62,2.01
90260,2.62,2.00
90260,2.62,2.01
90261,2.62,2.00
90261,2.62,2.00
90261,2.62,2.00
90262,2.62,2.01
90262,2.62,2.01
90262,2.60,2.00
90263,2.61,2.00
90263,2.60,2.01
90263,2.61,2.01
90263,2.60,2.01
90264,2.62,2.01
90264,2.60,2.02
90264,2.60,2.02
90265,2.61,2.01
90265,2.61,2.02
90265,2.61,2.02
90266,2.63,2.02
90266,2.59,2.02
90266,2.61,2.02
90266,2.60,2.02
90267,2.60,2.02
90267,2.59,2.02
90267,2.59,2.02
90268,2.59,2.02
90268,2.58,2.02
90268,2.58,2.02
90269,2.57,2.03
90269,2.57,2.03
90269,2.58,2.03
90269,2.58,2.03
90270,2.58,2.03
90270,2.58,2.03
90270,2.58,2.03
90271,2.58,2.04
90271,2.58,2.03
90271,2.58,2.04
90272,2.57,2.03
90272,2.58,2.03
90272,2.57,2.03
90272,2.57,2.04
90273,2.57,2.03
90273,2.56,2.03
90273,2.56,2.04
90274,2.56,2.04
90274,2.56,2.04
90274,2.56,2.04
90275,2.56,2.04
90275,2.56,2.04
90275,2.56,2.05
90276,2.57,2.05
90276,2.56,2.05
90276,2.57,2.05
90276,2.56,2.05
90277,2.56,2.05
90277,2.56,2.05
90277,2.56,2.05
90278,2.54,2.04
90278,2.54,2.04
90278,2.54,2.05
90279,2.54,2.04
90279,2.55,2.05
90279,2.54,2.05
90279,2.54,2.05
90280,2.53,2.05
90280,2.54,2.05
90280,2.54,2.05
90281,2.54,2.05
90281,2.54,2.05
90281,2.51,2.05
90282,2.54,2.05
90282,2.54,2.05
90282,2.53,2.05
90282,2.53,2.05
90283,2.53,2.05
90283,2.52,2.05
90283,2.52,2.05
90284,2.51,2.05
90284,2.51,2.05
90284,2.52,2.05
90285,2.49,2.05
90285,2.51,2.05
90285,2.51,2.05
90285,2.51,2.05
90286,2.51,2.05
90286,2.51,2.05
90286,2.52,2.05
90287,2.52,2.05
90287,2.52,2.05
90287,2.51,2.05
90288,2.52,2.05
90288,2.50,2.05
90288,2.51,2.05
90288,2.50,2.05
90289,2.50,2.04
90289,2.51,2.04
90289,2.50,2.04
90290,2.50,2.04
90290,2.51,2.04
90290,2.51,2.04
90291,2.51,2.05
90291,2.51,2.04
90291,2.52,2.04
90292,2.52,2.04
90292,2.52,2.04
90292,2.51,2.04
90292,2.51,2.03
90293,2.51,2.04
90293,2.51,2.03
90293,2.50,2.04
90294,2.50,2.03
90294,2.50,2.03
90294,2.50,2.03
90295,2.50,2.03
90295,2.50,2.03
90295,2.50,2.03
90295,2.51,2.03
90296,2.51,2.03
90296,2.51,2.03
90296,2.51,2.03
90297,2.51,2.03
90297,2.52,2.03
90297,2.52,2.03
90298,2.51,2.03
90298,2.51,2.02
90298,2.51,2.02
90298,2.50,2.02
90299,2.50,2.02
90299,2.50,2.02
90299,2.50,2.02
90300,2.50,2.02
90300,2.50,2.02
90300,2.50,2.02
90301,2.50,2.02
90301,2.51,2.02
90301,2.51,2.02
90301,2.51,2.02
90302,2.51,2.02
90302,2.51,2.02
90302,2.51,2.02
