time_ms,ch1_v,ch2_v
55,4.28,4.22
56,4.28,4.22
57,4.28,4.22
58,4.28,4.21
59,4.28,4.21
60,4.28,4.21
61,4.28,4.20
62,4.28,4.20
63,4.28,4.20
64,4.28,4.19
65,4.28,4.19
66,4.28,4.18
67,4.28,4.18
68,4.28,4.18
69,4.28,4.17
70,4.28,4.17
71,4.28,4.17
72,4.28,4.17
73,4.28,4.16
74,4.28,4.16
75,4.28,4.16
76,4.28,4.15
77,4.28,4.15
78,4.28,4.15
79,4.28,4.15
80,4.28,4.14
81,4.28,4.14
82,4.28,4.14
83,4.28,4.14
84,4.28,4.13
86,4.28,4.13
87,4.29,4.13
88,4.29,4.13
89,4.29,4.13
90,4.29,4.13
91,4.29,4.12
92,4.29,4.12
94,4.29,4.12
95,4.29,4.12
96,4.29,4.12
97,4.29,4.11
98,4.29,4.11
99,4.29,4.11
100,4.29,4.11
101,4.29,4.11
102,4.29,4.10
103,4.29,4.10
104,4.29,4.10
105,4.29,4.10
106,4.29,4.10
107,4.29,4.10
108,4.29,4.09
109,4.29,4.09
110,4.29,4.09
112,4.29,4.09
113,4.29,4.09
114,4.29,4.09
115,4.29,4.09
116,4.29,4.09
117,4.29,4.09
118,4.29,4.08
119,4.29,4.08
120,4.29,4.08
121,4.29,4.08
122,4.29,4.08
123,4.29,4.08
124,4.29,4.08
125,4.29,4.08
128,4.29,4.08
129,4.29,4.08
130,4.29,4.08
131,4.29,4.08
132,4.29,4.08
133,4.29,4.07
134,4.29,4.07
135,4.29,4.07
136,4.30,4.07
137,4.29,4.07
138,4.30,4.07
139,4.30,4.07
140,4.30,4.07
142,4.30,4.07
143,4.30,4.07
144,4.29,4.07
145,4.30,4.07
146,4.30,4.07
147,4.30,4.07
148,4.30,4.07
149,4.30,4.07
150,4.30,4.07
151,4.30,4.07
152,4.30,4.07
153,4.30,4.07
154,4.30,4.07
155,4.30,4.07
156,4.30,4.07
158,4.30,4.07
159,4.30,4.07
160,4.30,4.07
161,4.30,4.07
162,4.30,4.07
163,4.30,4.07
164,4.30,4.07
165,4.30,4.07
166,4.30,4.07
167,4.30,4.07
168,4.30,4.07
169,4.30,4.07
171,4.30,4.07
172,4.30,4.07
174,4.30,4.07
175,4.30,4.07
176,4.30,4.07
177,4.30,4.07
178,4.30,4.07
179,4.30,4.07
180,4.30,4.07
181,4.30,4.07
182,4.30,4.07
183,4.30,4.07
184,4.30,4.08
185,4.30,4.07
186,4.30,4.07
187,4.30,4.08
188,4.30,4.08
189,4.30,4.08
191,4.30,4.08
192,4.30,4.08
193,4.30,4.08
194,4.30,4.08
195,4.30,4.08
196,4.30,4.08
197,4.30,4.08
198,4.30,4.08
199,4.30,4.08
200,4.30,4.08
201,4.30,4.08
202,4.30,4.08
203,4.30,4.08
204,4.30,4.09
205,4.30,4.09
207,4.30,4.09
208,4.30,4.09
209,4.30,4.09
210,4.30,4.09
211,4.30,4.09
212,4.30,4.09
214,4.30,4.09
215,4.30,4.09
216,4.30,4.09
217,4.30,4.09
218,4.30,4.09
219,4.30,4.09
220,4.30,4.09
221,4.30,4.10
222,4.30,4.09
224,4.30,4.09
225,4.30,4.09
226,4.30,4.10
227,4.30,4.10
228,4.30,4.10
229,4.30,4.10
230,4.30,4.10
231,4.31,4.10
232,4.30,4.10
233,4.31,4.11
234,4.30,4.11
235,4.30,4.11
236,4.30,4.11
237,4.31,4.11
239,4.30,4.11
240,4.30,4.12
241,4.30,4.12
242,4.30,4.12
243,4.30,4.12
244,4.30,4.13
245,4.30,4.13
246,4.30,4.13
247,4.30,4.13
248,4.30,4.13
249,4.30,4.13
250,4.30,4.13
251,4.30,4.14
253,4.30,4.14
254,4.30,4.14
256,4.30,4.14
257,4.30,4.14
258,4.30,4.14
259,4.30,4.15
260,4.30,4.15
261,4.30,4.15
262,4.30,4.16
263,4.30,4.16
264,4.30,4.16
265,4.30,4.17
266,4.30,4.17
267,4.30,4.17
269,4.30,4.17
270,4.30,4.17
271,4.30,4.18
272,4.30,4.18
273,4.30,4.18
274,4.30,4.18
275,4.30,4.19
276,4.30,4.19
277,4.30,4.19
278,4.30,4.20
279,4.30,4.20
280,4.30,4.20
281,4.30,4.20
282,4.30,4.21
284,4.30,4.21
285,4.30,4.21
286,4.30,4.21
287,4.30,4.22
288,4.30,4.22
289,4.30,4.22
290,4.30,4.22
291,4.30,4.23
292,4.30,4.23
293,4.30,4.23
294,4.30,4.24
295,4.30,4.24
296,4.30,4.24
297,4.30,4.24
299,4.30,4.25
301,4.30,4.25
302,4.30,4.25
303,4.30,4.25
304,4.30,4.26
305,4.30,4.26
306,4.30,4.26
307,4.30,4.27
308,4.30,4.27
309,4.30,4.27
310,4.30,4.27
311,4.30,4.28
312,4.30,4.28
314,4.30,4.28
315,4.30,4.28
316,4.30,4.29
317,4.30,4.29
318,4.30,4.29
319,4.30,4.29
320,4.30,4.30
321,4.30,4.30
322,4.30,4.30
323,4.30,4.30
324,4.30,4.30
325,4.30,4.31
326,4.30,4.31
327,4.30,4.31
329,4.29,4.31
330,4.30,4.32
331,4.29,4.32
332,4.29,4.32
333,4.30,4.32
334,4.30,4.33
335,4.29,4.33
336,4.30,4.33
337,4.29,4.34
338,4.29,4.34
339,4.30,4.34
340,4.30,4.35
343,4.30,4.35
344,4.30,4.35
345,4.30,4.36
346,4.29,4.36
347,4.30,4.36
348,4.29,4.37
349,4.30,4.37
350,4.29,4.37
351,4.30,4.38
352,4.29,4.38
353,4.29,4.39
354,4.30,4.39
355,4.30,4.39
356,4.30,4.40
358,4.29,4.40
359,4.30,4.41
360,4.30,4.41
361,4.30,4.42
362,4.30,4.42
363,4.30,4.43
364,4.30,4.43
365,4.30,4.43
366,4.30,4.44
367,4.30,4.44
368,4.30,4.45
369,4.30,4.45
370,4.30,4.46
371,4.30,4.46
373,4.30,4.47
374,4.30,4.47
375,4.30,4.48
376,4.30,4.49
377,4.30,4.50
378,4.30,4.50
379,4.30,4.51
380,4.30,4.52
381,4.30,4.52
382,4.30,4.53
384,4.30,4.54
385,4.30,4.54
386,4.30,4.55
388,4.30,4.56
389,4.30,4.57
390,4.30,4.57
391,4.30,4.58
392,4.30,4.59
393,4.30,4.60
394,4.30,4.61
395,4.30,4.62
396,4.30,4.63
397,4.30,4.64
398,4.30,4.65
399,4.30,4.66
400,4.30,4.67
401,4.30,4.68
403,4.30,4.68
404,4.30,4.69
405,4.30,4.70
406,4.30,4.71
407,4.30,4.72
408,4.30,4.73
409,4.30,4.73
410,4.30,4.74
411,4.30,4.75
412,4.30,4.75
413,4.30,4.76
414,4.30,4.77
415,4.30,4.77
416,4.30,4.77
418,4.29,4.77
419,4.29,4.77
420,4.29,4.77
421,4.29,4.77
422,4.29,4.77
423,4.29,4.77
424,4.29,4.76
425,4.29,4.76
427,4.29,4.76
428,4.28,4.75
429,4.28,4.75
430,4.28,4.74
432,4.28,4.74
433,4.28,4.73
434,4.28,4.72
435,4.28,4.72
436,4.28,4.72
437,4.28,4.71
438,4.28,4.71
439,4.28,4.70
440,4.28,4.70
441,4.28,4.69
442,4.28,4.69
443,4.28,4.68
444,4.28,4.67
446,4.28,4.67
447,4.28,4.66
448,4.28,4.65
449,4.28,4.65
450,4.28,4.64
451,4.28,4.64
452,4.28,4.63
453,4.28,4.62
454,4.28,4.61
455,4.28,4.61
456,4.28,4.60
457,4.28,4.60
458,4.27,4.59
460,4.27,4.58
461,4.27,4.58
462,4.27,4.57
463,4.27,4.57
464,4.27,4.56
465,4.27,4.56
466,4.27,4.55
467,4.27,4.55
468,4.27,4.54
470,4.27,4.53
471,4.27,4.53
472,4.26,4.52
473,4.27,4.52
475,4.26,4.51
476,4.26,4.51
477,4.26,4.50
478,4.26,4.50
479,4.26,4.49
480,4.26,4.49
481,4.26,4.48
482,4.26,4.48
483,4.26,4.48
484,4.26,4.47
485,4.26,4.47
486,4.25,4.46
488,4.26,4.46
489,4.25,4.46
490,4.25,4.45
491,4.26,4.45
492,4.26,4.45
493,4.25,4.44
494,4.25,4.44
495,4.25,4.44
496,4.25,4.44
497,4.25,4.43
498,4.25,4.43
499,4.26,4.43
500,4.25,4.43
502,4.25,4.43
503,4.25,4.42
504,4.26,4.42
505,4.26,4.42
506,4.26,4.42
507,4.25,4.42
508,4.26,4.42
509,4.26,4.42
510,4.26,4.42
512,4.26,4.41
513,4.26,4.41
514,4.26,4.41
515,4.26,4.41
517,4.26,4.41
518,4.26,4.41
519,4.26,4.41
520,4.26,4.41
521,4.26,4.41
522,4.27,4.41
523,4.26,4.41
524,4.27,4.41
525,4.27,4.41
526,4.27,4.41
527,4.27,4.41
528,4.27,4.41
529,4.27,4.40
531,4.27,4.40
532,4.27,4.40
533,4.27,4.40
534,4.27,4.40
535,4.27,4.40
536,4.27,4.40
537,4.27,4.40
538,4.27,4.40
539,4.27,4.40
540,4.27,4.40
541,4.27,4.40
542,4.27,4.40
543,4.27,4.40
544,4.27,4.40
546,4.27,4.40
547,4.27,4.40
548,4.27,4.40
549,4.27,4.40
550,4.27,4.40
551,4.28,4.40
552,4.28,4.40
553,4.27,4.40
555,4.28,4.40
556,4.28,4.41
557,4.28,4.41
558,4.28,4.41
559,4.28,4.41
560,4.28,4.41
562,4.28,4.41
563,4.28,4.41
564,4.28,4.41
565,4.28,4.41
566,4.28,4.41
567,4.28,4.41
568,4.28,4.41
569,4.28,4.41
570,4.28,4.41
571,4.28,4.41
572,4.28,4.41
573,4.28,4.41
574,4.28,4.41
576,4.28,4.41
577,4.28,4.41
578,4.28,4.41
579,4.28,4.41
580,4.28,4.41
581,4.28,4.41
582,4.28,4.41
583,4.28,4.41
584,4.28,4.41
585,4.28,4.41
586,4.28,4.41
587,4.28,4.41
588,4.28,4.41
590,4.28,4.41
591,4.28,4.41
592,4.28,4.41
593,4.28,4.41
594,4.28,4.41
595,4.28,4.41
596,4.28,4.41
598,4.28,4.41
599,4.28,4.41
600,4.28,4.41
601,4.28,4.41
602,4.28,4.41
603,4.28,4.41
605,4.28,4.41
606,4.28,4.41
607,4.28,4.41
608,4.28,4.41
609,4.28,4.41
610,4.28,4.41
611,4.28,4.41
612,4.29,4.41
613,4.28,4.39
614,4.25,4.35
615,4.22,4.32
616,4.18,4.28
617,4.14,4.23
619,4.10,4.19
620,4.06,4.15
621,4.02,4.12
622,3.99,4.10
623,3.97,4.09
624,3.96,4.08
625,3.95,4.08
626,3.95,4.08
627,3.95,4.08
628,3.96,4.09
629,3.95,4.07
630,3.94,4.04
631,3.91,4.01
632,3.89,3.98
634,3.85,3.95
635,3.82,3.91
636,3.78,3.88
637,3.75,3.85
638,3.73,3.84
640,3.71,3.82
641,3.70,3.82
642,3.70,3.82
643,3.71,3.83
644,3.72,3.84
645,3.73,3.84
646,3.74,3.84
648,3.73,3.82
649,3.72,3.80
650,3.70,3.78
651,3.68,3.75
652,3.66,3.73
653,3.64,3.70
654,3.61,3.69
655,3.60,3.68
656,3.59,3.67
657,3.59,3.67
658,3.60,3.68
659,3.61,3.69
660,3.63,3.70
661,3.65,3.72
663,3.67,3.72
664,3.67,3.71
665,3.67,3.70
666,3.66,3.68
667,3.64,3.67
668,3.63,3.65
669,3.61,3.63
670,3.59,3.61
671,3.58,3.61
672,3.58,3.61
673,3.58,3.61
674,3.59,3.62
676,3.61,3.64
677,3.63,3.65
678,3.66,3.67
679,3.68,3.68
680,3.68,3.67
681,3.68,3.66
683,3.67,3.65
684,3.66,3.64
685,3.65,3.62
686,3.63,3.60
687,3.61,3.59
688,3.60,3.58
689,3.60,3.59
691,3.61,3.59
692,3.62,3.60
693,3.63,3.62
694,3.65,3.63
695,3.68,3.65
696,3.70,3.66
697,3.71,3.66
698,3.70,3.65
699,3.70,3.64
700,3.69,3.63
701,3.67,3.61
702,3.66,3.59
703,3.64,3.58
705,3.63,3.58
706,3.63,3.58
707,3.63,3.58
708,3.64,3.59
709,3.65,3.61
710,3.68,3.63
711,3.70,3.65
712,3.72,3.65
713,3.73,3.65
714,3.73,3.64
715,3.72,3.63
716,3.70,3.62
717,3.69,3.60
719,3.67,3.59
720,3.66,3.57
721,3.64,3.58
722,3.64,3.57
723,3.64,3.58
724,3.65,3.59
726,3.66,3.60
727,3.68,3.62
728,3.70,3.64
729,3.72,3.65
730,3.73,3.64
731,3.73,3.63
733,3.72,3.62
734,3.71,3.61
735,3.70,3.59
736,3.68,3.58
737,3.66,3.57
738,3.65,3.56
739,3.65,3.56
740,3.64,3.57
741,3.65,3.57
742,3.66,3.59
743,3.68,3.60
744,3.70,3.62
745,3.71,3.63
747,3.72,3.63
748,3.72,3.62
749,3.71,3.61
750,3.70,3.60
751,3.69,3.58
752,3.67,3.57
753,3.65,3.55
754,3.64,3.55
755,3.64,3.55
756,3.64,3.55
757,3.64,3.56
758,3.65,3.57
759,3.67,3.59
761,3.69,3.61
762,3.70,3.62
763,3.72,3.61
764,3.71,3.61
765,3.71,3.60
766,3.70,3.59
768,3.68,3.57
769,3.67,3.56
770,3.65,3.54
771,3.63,3.54
772,3.63,3.54
773,3.63,3.54
774,3.63,3.55
776,3.64,3.56
777,3.66,3.58
778,3.68,3.60
779,3.70,3.61
780,3.71,3.61
781,3.71,3.60
782,3.71,3.59
783,3.70,3.58
784,3.68,3.56
785,3.67,3.55
786,3.65,3.54
787,3.63,3.54
788,3.63,3.53
790,3.63,3.54
791,3.63,3.54
792,3.64,3.56
793,3.66,3.57
794,3.68,3.59
795,3.70,3.60
796,3.71,3.60
797,3.71,3.60
798,3.71,3.59
799,3.70,3.58
800,3.68,3.57
801,3.67,3.55
802,3.65,3.54
804,3.63,3.53
805,3.63,3.53
806,3.63,3.54
807,3.63,3.54
808,3.64,3.55
809,3.65,3.57
811,3.67,3.59
812,3.70,3.60
813,3.71,3.60
814,3.71,3.60
815,3.71,3.59
816,3.70,3.57
817,3.69,3.57
819,3.67,3.55
820,3.65,3.54
821,3.64,3.53
822,3.63,3.53
823,3.63,3.53
824,3.63,3.54
825,3.64,3.55
826,3.65,3.56
827,3.67,3.58
828,3.69,3.60
829,3.71,3.60
830,3.71,3.59
831,3.71,3.59
833,3.70,3.58
834,3.69,3.56
835,3.67,3.55
836,3.66,3.54
837,3.64,3.53
838,3.63,3.53
839,3.63,3.53
840,3.63,3.53
841,3.64,3.55
842,3.65,3.56
843,3.67,3.58
844,3.69,3.59
845,3.71,3.60
847,3.71,3.59
848,3.71,3.58
849,3.70,3.57
850,3.69,3.56
851,3.68,3.55
852,3.66,3.54
854,3.64,3.53
855,3.63,3.53
856,3.63,3.53
857,3.63,3.53
858,3.64,3.54
859,3.65,3.56
860,3.67,3.57
862,3.69,3.59
863,3.71,3.60
864,3.72,3.59
865,3.71,3.59
866,3.70,3.58
867,3.70,3.56
868,3.68,3.55
869,3.66,3.54
870,3.64,3.53
871,3.63,3.52
872,3.64,3.52
873,3.63,3.53
874,3.64,3.54
876,3.65,3.55
877,3.67,3.57
878,3.69,3.59
879,3.71,3.59
880,3.72,3.59
881,3.72,3.58
882,3.71,3.57
883,3.70,3.56
884,3.68,3.55
885,3.67,3.54
886,3.65,3.52
887,3.64,3.52
888,3.64,3.52
890,3.64,3.53
891,3.64,3.54
892,3.65,3.55
893,3.67,3.57
894,3.69,3.58
896,3.71,3.59
897,3.72,3.59
898,3.72,3.58
899,3.71,3.57
900,3.70,3.56
901,3.69,3.55
902,3.67,3.54
903,3.65,3.52
905,3.64,3.52
906,3.64,3.52
907,3.64,3.53
908,3.64,3.54
909,3.65,3.55
910,3.67,3.56
911,3.69,3.58
912,3.71,3.59
913,3.72,3.59
914,3.72,3.58
915,3.72,3.57
916,3.70,3.56
917,3.69,3.55
919,3.68,3.54
920,3.66,3.52
921,3.64,3.52
922,3.64,3.52
923,3.64,3.53
924,3.64,3.53
925,3.66,3.55
926,3.67,3.56
927,3.70,3.58
928,3.71,3.59
929,3.73,3.59
930,3.73,3.58
931,3.72,3.57
933,3.71,3.56
934,3.70,3.55
935,3.68,3.54
936,3.66,3.52
937,3.65,3.52
939,3.64,3.52
940,3.64,3.52
941,3.65,3.53
942,3.66,3.54
943,3.67,3.56
944,3.70,3.58
945,3.71,3.59
946,3.73,3.59
948,3.73,3.58
949,3.73,3.58
950,3.72,3.56
951,3.70,3.55
952,3.69,3.54
953,3.67,3.53
954,3.65,3.52
955,3.65,3.52
956,3.65,3.52
957,3.65,3.53
958,3.66,3.54
959,3.68,3.56
960,3.70,3.58
962,3.72,3.59
963,3.74,3.59
964,3.74,3.59
965,3.74,3.58
966,3.73,3.57
967,3.71,3.56
968,3.70,3.55
969,3.68,3.53
970,3.66,3.52
971,3.66,3.52
972,3.66,3.53
973,3.66,3.54
974,3.67,3.55
976,3.69,3.56
977,3.71,3.58
978,3.73,3.59
979,3.75,3.60
980,3.76,3.60
982,3.76,3.59
983,3.75,3.58
984,3.73,3.57
985,3.71,3.55
986,3.70,3.54
987,3.68,3.53
988,3.67,3.53
989,3.67,3.53
991,3.68,3.54
992,3.69,3.55
993,3.70,3.57
994,3.72,3.58
995,3.75,3.60
996,3.77,3.61
997,3.78,3.60
998,3.78,3.60
999,3.76,3.59
1000,3.75,3.57
1001,3.73,3.56
1002,3.71,3.55
1004,3.70,3.54
1005,3.69,3.54
1006,3.69,3.54
1007,3.70,3.55
1008,3.71,3.56
1009,3.73,3.58
1010,3.75,3.60
1011,3.77,3.61
1013,3.79,3.62
1014,3.80,3.61
1015,3.79,3.60
1016,3.78,3.59
1017,3.76,3.58
1018,3.74,3.56
1019,3.72,3.55
1020,3.70,3.54
1022,3.70,3.54
1024,3.71,3.55
1025,3.71,3.56
1026,3.73,3.58
1027,3.75,3.59
1028,3.78,3.61
1029,3.80,3.62
1030,3.81,3.62
1032,3.81,3.61
1033,3.80,3.60
1034,3.78,3.58
1035,3.76,3.57
1036,3.74,3.56
1037,3.72,3.54
1038,3.71,3.54
1039,3.71,3.55
1041,3.72,3.56
1042,3.73,3.57
1043,3.75,3.59
1044,3.77,3.60
1045,3.80,3.62
1046,3.82,3.62
1047,3.82,3.62
1048,3.81,3.61
1050,3.79,3.59
1051,3.77,3.58
1052,3.75,3.57
1053,3.73,3.55
1054,3.71,3.54
1055,3.71,3.55
1056,3.72,3.56
1058,3.73,3.57
1059,3.75,3.58
1060,3.77,3.60
1061,3.80,3.62
1062,3.82,3.63
1063,3.83,3.62
1064,3.82,3.61
1065,3.81,3.60
1068,3.79,3.59
1069,3.77,3.57
1070,3.75,3.56
1071,3.73,3.55
1072,3.72,3.55
1073,3.72,3.56
1074,3.74,3.57
1075,3.75,3.58
1077,3.78,3.60
1078,3.80,3.62
1079,3.83,3.63
1080,3.85,3.63
1081,3.85,3.62
1082,3.83,3.61
1083,3.82,3.60
1084,3.80,3.59
1086,3.78,3.57
1087,3.76,3.56
1088,3.74,3.55
1089,3.73,3.55
1090,3.75,3.57
1091,3.77,3.58
1092,3.79,3.60
1093,3.81,3.61
1095,3.84,3.63
1096,3.86,3.64
1097,3.87,3.63
1098,3.86,3.62
1099,3.85,3.61
1100,3.83,3.60
1101,3.81,3.58
1102,3.78,3.57
1104,3.76,3.56
1105,3.75,3.56
1106,3.75,3.57
1107,3.77,3.58
1108,3.79,3.59
1110,3.81,3.61
1111,3.84,3.63
1112,3.87,3.64
1114,3.88,3.64
1115,3.88,3.63
1116,3.86,3.62
1117,3.84,3.60
1118,3.82,3.59
1119,3.80,3.58
1120,3.78,3.56
1121,3.76,3.56
1123,3.76,3.56
1124,3.77,3.57
1125,3.78,3.59
1126,3.81,3.60
1127,3.83,3.62
1128,3.86,3.64
1129,3.88,3.64
1130,3.88,3.63
1132,3.87,3.62
1133,3.86,3.61
1134,3.83,3.60
1135,3.81,3.58
1136,3.79,3.57
1137,3.76,3.56
1138,3.75,3.56
1139,3.76,3.56
1141,3.77,3.58
1142,3.80,3.59
1143,3.82,3.61
1144,3.84,3.63
1145,3.87,3.64
1146,3.88,3.64
1147,3.88,3.63
1149,3.86,3.61
1150,3.84,3.60
1152,3.82,3.59
1153,3.80,3.57
1154,3.77,3.56
1155,3.76,3.56
1156,3.75,3.56
1157,3.77,3.57
1159,3.79,3.59
1160,3.81,3.60
1161,3.83,3.62
1162,3.86,3.63
1163,3.88,3.63
1164,3.88,3.63
1165,3.87,3.62
1166,3.85,3.60
1168,3.83,3.59
1169,3.81,3.58
1170,3.78,3.56
1171,3.76,3.56
1172,3.75,3.56
1173,3.76,3.56
1174,3.78,3.58
1175,3.80,3.59
1177,3.82,3.61
1178,3.85,3.63
1179,3.87,3.64
1180,3.88,3.63
1181,3.88,3.62
1182,3.86,3.61
1183,3.84,3.60
1184,3.82,3.58
1186,3.79,3.57
1187,3.77,3.56
1188,3.76,3.55
1189,3.76,3.56
1190,3.77,3.57
1191,3.79,3.58
1192,3.81,3.60
1193,3.83,3.62
1196,3.86,3.63
1197,3.87,3.63
1198,3.87,3.63
1199,3.86,3.61
1200,3.84,3.60
1201,3.82,3.59
1202,3.80,3.57
1203,3.78,3.56
1205,3.76,3.55
1206,3.75,3.56
1207,3.76,3.56
1208,3.76,3.57
1209,3.78,3.59
1210,3.80,3.60
1211,3.82,3.62
1212,3.85,3.63
1214,3.85,3.62
1215,3.85,3.61
1216,3.83,3.60
1217,3.81,3.59
1218,3.79,3.57
1219,3.77,3.56
1220,3.74,3.55
1221,3.73,3.55
1223,3.73,3.55
1224,3.74,3.56
1225,3.75,3.57
1226,3.77,3.59
1227,3.79,3.61
1228,3.82,3.62
1229,3.83,3.62
1230,3.83,3.61
1232,3.81,3.60
1233,3.80,3.59
1234,3.78,3.57
1235,3.76,3.56
1236,3.73,3.55
1238,3.72,3.54
1239,3.71,3.54
1240,3.72,3.55
1242,3.72,3.56
1243,3.74,3.57
1244,3.76,3.59
1245,3.79,3.61
1246,3.81,3.61
1247,3.81,3.60
1248,3.80,3.60
1249,3.79,3.58
1251,3.77,3.57
1252,3.75,3.55
1253,3.73,3.54
1254,3.70,3.53
1255,3.70,3.53
1256,3.70,3.54
1257,3.70,3.55
1258,3.72,3.56
1260,3.73,3.57
1261,3.76,3.59
1262,3.78,3.59
1263,3.79,3.59
1264,3.79,3.59
1265,3.77,3.58
1266,3.75,3.56
1267,3.74,3.55
1269,3.71,3.54
1270,3.70,3.52
1271,3.68,3.52
1272,3.68,3.52
1273,3.69,3.53
1274,3.69,3.54
1275,3.71,3.55
1276,3.73,3.57
1278,3.75,3.58
1280,3.77,3.58
1281,3.77,3.57
1282,3.76,3.56
1283,3.74,3.55
1284,3.73,3.54
1285,3.70,3.52
1286,3.69,3.51
1288,3.67,3.51
1289,3.67,3.51
1290,3.67,3.51
1291,3.67,3.52
1292,3.68,3.53
1293,3.70,3.55
1294,3.73,3.56
1295,3.75,3.57
1297,3.75,3.57
1298,3.75,3.56
1299,3.73,3.55
1300,3.72,3.53
1301,3.70,3.52
1302,3.69,3.51
1303,3.67,3.50
1304,3.66,3.50
1306,3.66,3.50
1307,3.66,3.51
1308,3.67,3.52
1309,3.69,3.54
1310,3.70,3.55
1311,3.73,3.56
1312,3.74,3.56
1313,3.74,3.56
1315,3.73,3.55
1316,3.72,3.54
1317,3.70,3.53
1318,3.69,3.51
1319,3.67,3.50
1320,3.65,3.50
1321,3.65,3.50
1323,3.65,3.50
1325,3.66,3.51
1326,3.67,3.53
1327,3.69,3.55
1328,3.71,3.56
1329,3.73,3.56
1330,3.74,3.56
1331,3.73,3.55
1332,3.72,3.54
1334,3.71,3.53
1335,3.69,3.51
1336,3.67,3.50
1337,3.65,3.49
1338,3.65,3.50
1339,3.65,3.50
1340,3.65,3.51
1341,3.66,3.52
1343,3.68,3.53
1344,3.70,3.55
1345,3.72,3.56
1346,3.74,3.56
1347,3.74,3.55
1348,3.73,3.54
1349,3.71,3.53
1350,3.70,3.52
1352,3.68,3.51
1353,3.66,3.50
1354,3.65,3.49
1355,3.65,3.50
1356,3.65,3.50
1357,3.65,3.51
1358,3.67,3.52
1359,3.69,3.54
1361,3.71,3.56
1362,3.73,3.56
1363,3.73,3.56
1364,3.73,3.55
1366,3.71,3.54
1367,3.70,3.53
1368,3.69,3.52
1369,3.67,3.50
1371,3.65,3.50
1372,3.65,3.50
1373,3.64,3.50
1374,3.65,3.50
1375,3.66,3.52
1376,3.68,3.54
1377,3.70,3.55
1378,3.72,3.56
1380,3.73,3.56
1381,3.73,3.56
1382,3.72,3.55
1383,3.70,3.53
1384,3.69,3.52
1385,3.67,3.51
1386,3.66,3.50
1387,3.64,3.50
1389,3.64,3.50
1390,3.64,3.51
1391,3.65,3.52
1392,3.66,3.53
1393,3.69,3.55
1394,3.71,3.56
1395,3.72,3.57
1396,3.73,3.56
1398,3.72,3.55
1399,3.71,3.54
1400,3.70,3.53
1401,3.68,3.52
1402,3.66,3.51
1403,3.65,3.50
1404,3.64,3.50
1405,3.64,3.50
1408,3.65,3.51
1409,3.66,3.52
1410,3.68,3.54
1411,3.70,3.55
1412,3.72,3.56
1413,3.73,3.56
1414,3.73,3.55
1415,3.72,3.54
1417,3.70,3.53
1418,3.69,3.52
1419,3.67,3.51
1420,3.65,3.49
1421,3.64,3.50
1422,3.64,3.50
1423,3.65,3.51
1424,3.66,3.52
1426,3.67,3.53
1427,3.70,3.55
1428,3.72,3.56
1429,3.73,3.56
1430,3.73,3.56
1431,3.72,3.55
1432,3.71,3.54
1433,3.70,3.53
1435,3.68,3.51
1436,3.66,3.50
1437,3.65,3.50
1438,3.64,3.50
1439,3.64,3.50
1440,3.65,3.51
1441,3.66,3.53
1443,3.68,3.54
1444,3.70,3.56
1445,3.73,3.57
1446,3.73,3.56
1447,3.73,3.56
1448,3.72,3.54
1449,3.70,3.53
1451,3.69,3.52
1453,3.67,3.51
1454,3.65,3.49
1455,3.65,3.50
1456,3.65,3.50
1457,3.65,3.51
1458,3.66,3.52
1459,3.68,3.54
1460,3.70,3.56
1462,3.72,3.57
1463,3.74,3.57
1464,3.74,3.56
1465,3.73,3.56
1466,3.71,3.54
1467,3.70,3.53
1468,3.69,3.52
1469,3.67,3.51
1471,3.65,3.51
1472,3.65,3.50
1473,3.65,3.51
1474,3.66,3.52
1475,3.67,3.54
1476,3.69,3.55
1477,3.72,3.57
1478,3.74,3.58
1480,3.74,3.57
1481,3.74,3.57
1482,3.72,3.56
1483,3.71,3.54
1484,3.70,3.53
1485,3.68,3.52
1486,3.66,3.51
1487,3.65,3.51
1489,3.65,3.51
1490,3.66,3.52
1491,3.67,3.53
1492,3.69,3.55
1494,3.71,3.57
1495,3.73,3.58
1496,3.74,3.58
1497,3.74,3.57
1499,3.74,3.57
1500,3.72,3.55
1501,3.70,3.54
1502,3.69,3.53
1503,3.67,3.52
1504,3.66,3.51
1505,3.66,3.52
1506,3.67,3.53
1508,3.68,3.54
1509,3.70,3.56
1510,3.72,3.58
1511,3.75,3.60
1512,3.77,3.61
1513,3.78,3.60
1514,3.77,3.60
1515,3.76,3.59
1517,3.74,3.58
1518,3.73,3.56
1519,3.71,3.55
1520,3.69,3.54
1521,3.69,3.55
1522,3.70,3.56
1523,3.71,3.57
1524,3.73,3.59
1526,3.76,3.61
1527,3.79,3.63
1528,3.82,3.65
1529,3.85,3.67
1530,3.89,3.69
1531,3.91,3.71
1532,3.94,3.73
1533,3.97,3.75
1536,4.00,3.77
1537,4.03,3.79
1538,4.06,3.81
1539,4.10,3.84
1540,4.12,3.86
1541,4.15,3.88
1542,4.17,3.90
1544,4.20,3.92
1545,4.22,3.93
1546,4.24,3.95
1547,4.27,3.97
1548,4.29,3.99
1549,4.31,4.00
1550,4.33,4.02
1551,4.35,4.03
1553,4.36,4.05
1554,4.37,4.06
1555,4.38,4.07
1556,4.40,4.09
1557,4.41,4.10
1558,4.41,4.11
1559,4.42,4.12
1560,4.43,4.13
1562,4.43,4.14
1563,4.44,4.14
1564,4.44,4.15
1565,4.44,4.16
1566,4.44,4.16
1567,4.44,4.17
1568,4.44,4.17
1569,4.44,4.18
1571,4.44,4.19
1572,4.44,4.19
1573,4.44,4.19
1574,4.44,4.20
1575,4.43,4.20
1576,4.43,4.20
1577,4.43,4.21
1579,4.42,4.21
1581,4.42,4.22
1582,4.41,4.22
1583,4.41,4.22
1584,4.41,4.23
1585,4.40,4.23
1586,4.40,4.23
1587,4.39,4.23
1588,4.39,4.23
1590,4.38,4.24
1591,4.38,4.24
1592,4.38,4.24
1593,4.37,4.25
1594,4.37,4.25
1595,4.36,4.25
1596,4.36,4.25
1597,4.36,4.25
1599,4.36,4.25
1600,4.35,4.26
1601,4.35,4.26
1602,4.35,4.27
1603,4.35,4.27
1604,4.35,4.27
1605,4.35,4.28
1607,4.34,4.28
1608,4.34,4.28
1609,4.34,4.29
1610,4.34,4.29
1611,4.34,4.29
1612,4.33,4.30
1613,4.33,4.30
1614,4.33,4.31
1616,4.33,4.31
1617,4.33,4.31
1618,4.33,4.32
1619,4.33,4.32
1620,4.33,4.32
1622,4.33,4.33
1623,4.33,4.33
1624,4.33,4.34
1626,4.33,4.34
1627,4.33,4.35
1628,4.33,4.35
1629,4.33,4.35
1630,4.33,4.35
1631,4.33,4.36
1632,4.33,4.36
1634,4.33,4.37
1635,4.33,4.37
1636,4.32,4.37
1637,4.32,4.38
1638,4.32,4.38
1639,4.32,4.39
1640,4.32,4.39
1641,4.32,4.40
1643,4.32,4.40
1644,4.32,4.41
1645,4.32,4.41
1646,4.32,4.42
1647,4.32,4.42
1648,4.32,4.42
1649,4.32,4.43
1650,4.32,4.43
1652,4.32,4.44
1653,4.33,4.44
1654,4.33,4.45
1655,4.33,4.45
1656,4.33,4.46
1657,4.33,4.46
1658,4.33,4.47
1659,4.33,4.48
1661,4.33,4.48
1662,4.33,4.49
1664,4.33,4.49
1665,4.33,4.50
1666,4.33,4.50
1667,4.33,4.51
1668,4.33,4.51
1670,4.33,4.52
1671,4.33,4.52
1672,4.33,4.53
1673,4.33,4.53
1674,4.33,4.54
1675,4.33,4.55
1676,4.33,4.55
1677,4.33,4.56
1679,4.33,4.57
1680,4.33,4.57
1681,4.33,4.58
1682,4.33,4.58
1683,4.33,4.59
1684,4.33,4.59
1685,4.33,4.60
1686,4.33,4.60
1688,4.33,4.61
1689,4.33,4.62
1690,4.33,4.62
1691,4.33,4.63
1692,4.33,4.64
1693,4.33,4.64
1694,4.33,4.65
1696,4.33,4.66
1697,4.33,4.66
1698,4.33,4.67
1699,4.33,4.68
1700,4.33,4.68
1701,4.33,4.69
1702,4.33,4.69
1703,4.33,4.70
1705,4.33,4.71
1707,4.33,4.72
1708,4.33,4.72
1709,4.33,4.73
1710,4.33,4.74
1711,4.33,4.74
1712,4.33,4.75
1714,4.33,4.75
1715,4.33,4.76
1716,4.33,4.76
1717,4.33,4.77
1718,4.33,4.77
1719,4.33,4.78
1720,4.33,4.78
1721,4.33,4.78
1723,4.33,4.79
1724,4.33,4.79
1725,4.33,4.79
1726,4.33,4.80
1727,4.33,4.80
1728,4.33,4.81
1729,4.33,4.81
1730,4.32,4.81
1732,4.32,4.81
1733,4.32,4.82
1734,4.32,4.82
1735,4.32,4.82
1736,4.32,4.82
1737,4.32,4.82
1738,4.32,4.83
1739,4.32,4.83
1741,4.32,4.83
1742,4.32,4.83
1743,4.32,4.83
1744,4.32,4.84
1745,4.32,4.83
1746,4.32,4.84
1747,4.32,4.84
1748,4.32,4.83
1751,4.32,4.83
1752,4.32,4.83
1753,4.32,4.83
1754,4.32,4.83
1755,4.32,4.83
1756,4.32,4.83
1757,4.31,4.83
1759,4.31,4.83
1760,4.31,4.82
1761,4.31,4.82
1762,4.31,4.82
1763,4.31,4.82
1764,4.31,4.82
1765,4.31,4.82
1766,4.31,4.82
1768,4.31,4.81
1769,4.31,4.81
1770,4.31,4.81
1771,4.31,4.80
1772,4.32,4.80
1773,4.32,4.80
1774,4.31,4.80
1775,4.31,4.79
1777,4.32,4.79
1778,4.31,4.79
1779,4.31,4.79
1780,4.31,4.78
1781,4.31,4.78
1782,4.31,4.78
1783,4.31,4.78
1784,4.31,4.78
1786,4.31,4.77
1787,4.31,4.77
1788,4.31,4.77
1789,4.31,4.76
1790,4.31,4.76
1792,4.31,4.76
1793,4.31,4.76
1794,4.31,4.75
1796,4.31,4.75
1797,4.31,4.75
1798,4.31,4.74
1799,4.31,4.74
1800,4.31,4.73
1801,4.31,4.73
1802,4.31,4.73
1804,4.31,4.72
1805,4.31,4.72
1806,4.31,4.72
1807,4.31,4.71
1808,4.31,4.71
1809,4.31,4.71
1810,4.31,4.70
1812,4.31,4.70
1813,4.31,4.69
1814,4.30,4.69
1815,4.31,4.69
1816,4.30,4.68
1817,4.30,4.68
1818,4.30,4.67
1819,4.30,4.67
1821,4.30,4.67
1822,4.30,4.66
1823,4.30,4.66
1824,4.30,4.66
1825,4.30,4.65
1826,4.30,4.65
1827,4.30,4.64
1828,4.30,4.64
1830,4.30,4.64
1831,4.30,4.63
1832,4.30,4.63
1833,4.30,4.63
1835,4.30,4.62
1836,4.30,4.62
1837,4.30,4.62
1838,4.30,4.61
1840,4.30,4.61
1841,4.30,4.61
1842,4.30,4.60
1843,4.30,4.60
1844,4.30,4.60
1845,4.30,4.59
1846,4.30,4.59
1847,4.30,4.58
1849,4.30,4.58
1850,4.30,4.57
1851,4.30,4.57
1852,4.30,4.57
1853,4.30,4.56
1854,4.30,4.56
1855,4.30,4.55
1856,4.30,4.55
1858,4.30,4.54
1859,4.30,4.54
1860,4.30,4.53
1861,4.30,4.53
1862,4.30,4.53
1863,4.30,4.52
1864,4.30,4.52
1865,4.30,4.51
1867,4.30,4.50
1868,4.30,4.50
1869,4.30,4.49
1870,4.30,4.49
1871,4.30,4.48
1872,4.30,4.48
1873,4.30,4.47
1874,4.30,4.47
1876,4.29,4.46
1878,4.30,4.46
1879,4.29,4.45
1880,4.29,4.45
1881,4.29,4.44
1882,4.29,4.43
1883,4.29,4.43
1884,4.29,4.42
1886,4.29,4.42
1887,4.29,4.41
1888,4.29,4.40
1889,4.29,4.40
1890,4.29,4.39
1891,4.29,4.39
1892,4.29,4.38
1893,4.29,4.37
1895,4.29,4.37
1896,4.29,4.36
1897,4.29,4.36
1898,4.29,4.35
1899,4.29,4.35
1900,4.29,4.35
1901,4.29,4.34
1902,4.29,4.33
1904,4.29,4.33
1905,4.29,4.32
1906,4.29,4.32
1907,4.29,4.31
1908,4.29,4.31
1909,4.28,4.30
1910,4.29,4.30
1911,4.29,4.29
1913,4.28,4.29
1914,4.28,4.28
1915,4.28,4.28
1916,4.28,4.27
1917,4.28,4.27
1918,4.28,4.26
1920,4.28,4.26
1921,4.28,4.25
1923,4.28,4.25
1924,4.28,4.24
1925,4.28,4.24
1926,4.28,4.23
1927,4.28,4.23
1928,4.28,4.23
1929,4.28,4.22
1931,4.28,4.22
1932,4.28,4.21
1933,4.28,4.21
1934,4.28,4.20
1935,4.28,4.20
1936,4.28,4.20
1937,4.28,4.19
1938,4.28,4.19
1939,4.28,4.19
1941,4.28,4.18
1942,4.28,4.18
1943,4.28,4.17
1944,4.28,4.17
1945,4.28,4.17
1946,4.28,4.16
1947,4.28,4.16
1948,4.28,4.16
1950,4.28,4.15
1951,4.28,4.15
1952,4.28,4.15
1953,4.28,4.14
1954,4.28,4.14
1955,4.28,4.14
1956,4.28,4.14
1957,4.28,4.13
1959,4.28,4.13
1960,4.28,4.13
1961,4.28,4.13
1963,4.28,4.13
1964,4.28,4.13
1965,4.28,4.12
1966,4.28,4.12
1968,4.28,4.12
1969,4.28,4.12
1970,4.28,4.11
1971,4.28,4.11
1972,4.28,4.11
1973,4.28,4.11
1974,4.28,4.11
1975,4.28,4.10
1977,4.28,4.10
1978,4.29,4.10
1979,4.28,4.10
1980,4.28,4.10
1981,4.29,4.09
1982,4.29,4.09
1983,4.29,4.09
1984,4.29,4.09
1986,4.29,4.09
1987,4.29,4.08
1988,4.29,4.08
1989,4.29,4.08
1990,4.29,4.08
1991,4.29,4.08
1992,4.29,4.08
1993,4.29,4.07
1995,4.29,4.07
1996,4.29,4.07
1997,4.29,4.07
1998,4.29,4.07
1999,4.29,4.07
2000,4.29,4.07
2001,4.29,4.07
2002,4.29,4.07
2004,4.29,4.07
2006,4.29,4.07
2007,4.29,4.07
2008,4.29,4.06
2009,4.29,4.06
2010,4.29,4.06
2011,4.29,4.06
2013,4.29,4.06
2014,4.29,4.06
2015,4.29,4.06
2016,4.29,4.06
2017,4.29,4.06
2018,4.29,4.06
2019,4.29,4.06
2020,4.29,4.06
2022,4.29,4.06
2023,4.29,4.06
2024,4.29,4.06
2025,4.29,4.06
2026,4.29,4.06
2027,4.29,4.06
2028,4.29,4.06
2029,4.29,4.06
2031,4.29,4.06
2032,4.29,4.06
2033,4.29,4.06
2034,4.29,4.06
2035,4.29,4.06
2036,4.30,4.06
2037,4.30,4.06
2039,4.30,4.06
2040,4.30,4.06
2041,4.30,4.06
2042,4.30,4.06
2043,4.30,4.06
2044,4.30,4.06
2045,4.30,4.06
2046,4.30,4.06
2049,4.30,4.06
2050,4.30,4.06
2051,4.30,4.06
2052,4.30,4.06
2053,4.30,4.06
2054,4.30,4.06
2055,4.30,4.06
2056,4.30,4.06
2057,4.30,4.06
2059,4.30,4.06
2060,4.30,4.06
2061,4.30,4.06
2062,4.30,4.06
2063,4.30,4.06
2064,4.30,4.06
2065,4.30,4.06
2066,4.30,4.06
2068,4.30,4.06
2069,4.30,4.06
2070,4.30,4.06
2071,4.30,4.06
2072,4.30,4.06
2073,4.30,4.06
2074,4.30,4.06
2075,4.30,4.06
2076,4.30,4.06
2078,4.30,4.06
2079,4.30,4.06
2080,4.30,4.06
2081,4.30,4.06
2082,4.30,4.06
2083,4.30,4.06
2084,4.30,4.06
2085,4.30,4.06
2087,4.30,4.06
2088,4.30,4.06
2089,4.30,4.06
2091,4.30,4.06
2092,4.30,4.06
2093,4.30,4.06
2094,4.30,4.07
2095,4.30,4.07
2096,4.30,4.07
2098,4.30,4.07
2099,4.30,4.07
2100,4.30,4.07
2101,4.30,4.07
2102,4.30,4.07
2103,4.30,4.07
2104,4.30,4.07
2105,4.30,4.07
2107,4.30,4.07
2108,4.30,4.07
2109,4.30,4.07
2110,4.30,4.07
2111,4.30,4.07
2112,4.30,4.07
2113,4.30,4.07
2114,4.30,4.07
2116,4.30,4.07
2117,4.30,4.07
2118,4.30,4.07
2119,4.30,4.07
2120,4.30,4.07
2121,4.30,4.07
2122,4.30,4.07
2123,4.30,4.07
2125,4.30,4.07
2126,4.30,4.07
2127,4.30,4.07
2128,4.30,4.07
2129,4.30,4.07
2130,4.30,4.07
2131,4.30,4.07
2132,4.30,4.07
2135,4.30,4.07
2136,4.30,4.07
2137,4.30,4.08
2138,4.30,4.07
2139,4.30,4.08
2140,4.30,4.08
2141,4.30,4.08
2142,4.30,4.08
2143,4.30,4.09
2145,4.30,4.09
2146,4.30,4.09
2147,4.30,4.09
2148,4.30,4.10
2149,4.30,4.10
2150,4.30,4.10
2151,4.30,4.10
2152,4.30,4.11
2154,4.30,4.11
2155,4.30,4.11
2156,4.30,4.12
2157,4.30,4.12
2158,4.30,4.12
2159,4.30,4.13
2160,4.30,4.13
2161,4.30,4.13
2163,4.30,4.13
2164,4.30,4.13
2165,4.30,4.14
2166,4.30,4.14
2167,4.30,4.14
2168,4.30,4.14
2169,4.30,4.15
2170,4.30,4.15
2172,4.30,4.15
2173,4.30,4.15
2174,4.30,4.16
2176,4.30,4.16
2177,4.30,4.16
2178,4.30,4.17
2179,4.30,4.17
2180,4.30,4.17
2182,4.30,4.17
2183,4.30,4.18
2184,4.30,4.18
2185,4.30,4.18
2186,4.30,4.18
2187,4.30,4.19
2188,4.30,4.19
2189,4.30,4.19
2191,4.30,4.19
2192,4.30,4.20
2193,4.30,4.20
2194,4.30,4.20
2195,4.30,4.20
2196,4.30,4.20
2197,4.30,4.21
2198,4.30,4.21
2200,4.30,4.21
2201,4.30,4.21
2202,4.30,4.22
2203,4.30,4.22
2204,4.30,4.22
2205,4.29,4.22
2206,4.29,4.23
2207,4.29,4.23
2209,4.29,4.23
2210,4.29,4.23
2211,4.29,4.24
2212,4.29,4.24
2213,4.29,4.24
2214,4.29,4.24
2215,4.29,4.25
2216,4.29,4.25
2219,4.29,4.25
2220,4.29,4.25
2221,4.29,4.25
2222,4.29,4.26
2223,4.29,4.26
2224,4.29,4.26
2225,4.29,4.27
2226,4.29,4.27
2228,4.29,4.27
2229,4.29,4.27
2230,4.29,4.28
2231,4.29,4.28
2232,4.29,4.28
2233,4.29,4.28
2234,4.29,4.28
2236,4.29,4.28
2237,4.29,4.28
2238,4.29,4.29
2239,4.29,4.29
2240,4.29,4.29
2241,4.29,4.29
2242,4.29,4.30
2243,4.29,4.30
2245,4.29,4.30
2246,4.29,4.30
2247,4.29,4.30
2248,4.29,4.31
2249,4.29,4.31
2250,4.29,4.31
2251,4.29,4.31
2252,4.29,4.32
2254,4.29,4.32
2255,4.29,4.32
2256,4.29,4.32
2257,4.29,4.33
2258,4.29,4.34
2259,4.29,4.34
2260,4.29,4.34
2262,4.29,4.35
2264,4.29,4.35
2265,4.29,4.35
2266,4.29,4.35
2267,4.29,4.36
2268,4.29,4.36
2269,4.29,4.37
2270,4.29,4.37
2272,4.29,4.37
2273,4.29,4.38
2274,4.29,4.38
2275,4.29,4.38
2276,4.29,4.39
2277,4.29,4.39
2278,4.29,4.40
2279,4.29,4.40
2281,4.29,4.41
2282,4.29,4.41
2283,4.29,4.42
2284,4.29,4.42
2285,4.29,4.42
2286,4.29,4.43
2287,4.29,4.43
2288,4.29,4.44
2290,4.29,4.44
2291,4.29,4.45
2292,4.29,4.45
2293,4.29,4.45
2294,4.29,4.46
2295,4.29,4.47
2296,4.29,4.47
2297,4.29,4.48
2299,4.29,4.48
2300,4.29,4.49
2301,4.29,4.49
2302,4.29,4.49
2304,4.29,4.50
2305,4.30,4.51
2306,4.29,4.51
2307,4.29,4.52
2309,4.29,4.52
2310,4.29,4.53
2311,4.29,4.54
2312,4.29,4.54
2313,4.29,4.55
2314,4.29,4.55
2315,4.29,4.56
2316,4.29,4.56
2318,4.29,4.57
2319,4.29,4.57
2320,4.29,4.57
2321,4.30,4.58
2322,4.29,4.58
2323,4.30,4.59
2324,4.29,4.60
2325,4.29,4.60
2327,4.29,4.61
2328,4.29,4.61
2329,4.29,4.61
2330,4.29,4.62
2331,4.29,4.62
2332,4.29,4.62
2333,4.29,4.63
2334,4.29,4.63
2336,4.29,4.63
2337,4.29,4.63
2338,4.29,4.63
2339,4.29,4.64
2340,4.29,4.64
2341,4.29,4.64
2342,4.29,4.64
2343,4.29,4.64
2345,4.29,4.64
2347,4.28,4.64
2348,4.28,4.64
2349,4.28,4.64
2350,4.28,4.63
2351,4.28,4.63
2352,4.28,4.63
2353,4.28,4.62
2355,4.28,4.62
2356,4.28,4.62
2357,4.28,4.62
2358,4.28,4.62
2359,4.28,4.61
2360,4.28,4.61
2361,4.28,4.61
2362,4.28,4.60
2364,4.28,4.60
2365,4.28,4.60
2366,4.28,4.59
2367,4.28,4.59
2368,4.28,4.58
2369,4.28,4.58
2370,4.28,4.58
2371,4.28,4.57
2373,4.28,4.57
2374,4.28,4.57
2375,4.28,4.57
2376,4.28,4.56
2377,4.28,4.56
2378,4.28,4.55
2379,4.28,4.55
2380,4.28,4.54
2382,4.28,4.54
2383,4.28,4.53
2384,4.28,4.53
2385,4.28,4.52
2386,4.28,4.52
2387,4.27,4.51
2388,4.27,4.51
2391,4.27,4.51
2392,4.27,4.50
2393,4.27,4.50
2394,4.27,4.49
2395,4.27,4.49
2396,4.27,4.48
2397,4.27,4.48
2398,4.27,4.47
2400,4.27,4.47
2401,4.27,4.47
2402,4.27,4.46
2403,4.27,4.46
2404,4.27,4.46
2405,4.27,4.45
2406,4.26,4.45
2407,4.27,4.45
2409,4.26,4.44
2410,4.26,4.44
2411,4.26,4.44
2412,4.26,4.43
2413,4.26,4.43
2414,4.26,4.43
2415,4.26,4.43
2416,4.26,4.42
2418,4.26,4.42
2419,4.26,4.42
2420,4.26,4.42
2421,4.26,4.41
2422,4.26,4.41
2423,4.26,4.41
2424,4.26,4.41
2425,4.26,4.41
2427,4.26,4.41
2428,4.26,4.40
2429,4.26,4.40
2430,4.26,4.40
2432,4.26,4.40
2433,4.26,4.40
2434,4.26,4.40
2435,4.26,4.40
2437,4.26,4.40
2438,4.26,4.39
2439,4.26,4.39
2440,4.26,4.39
2441,4.26,4.39
2442,4.26,4.39
2443,4.26,4.39
2444,4.26,4.39
2446,4.26,4.39
2447,4.26,4.39
2448,4.26,4.39
2449,4.26,4.39
2450,4.26,4.39
2451,4.26,4.39
2452,4.27,4.39
2453,4.27,4.39
2455,4.27,4.39
2456,4.27,4.39
2457,4.27,4.39
2458,4.27,4.38
2459,4.27,4.38
2460,4.27,4.39
2461,4.27,4.38
2462,4.27,4.38
2464,4.27,4.38
2465,4.27,4.38
2466,4.27,4.38
2467,4.27,4.38
2468,4.27,4.38
2469,4.27,4.38
2470,4.27,4.38
2471,4.27,4.38
2473,4.27,4.38
2475,4.27,4.38
2476,4.27,4.38
2477,4.27,4.38
2478,4.27,4.38
2479,4.27,4.39
2480,4.27,4.39
2481,4.27,4.39
2483,4.27,4.39
2484,4.27,4.39
2485,4.27,4.39
2486,4.27,4.39
2487,4.27,4.39
2488,4.27,4.39
2489,4.27,4.39
2490,4.27,4.39
2492,4.27,4.39
2493,4.27,4.39
2494,4.27,4.39
2495,4.27,4.39
2496,4.27,4.39
2497,4.28,4.39
2498,4.27,4.39
2500,4.27,4.39
2501,4.27,4.39
2502,4.28,4.39
2503,4.28,4.39
2504,4.28,4.39
2505,4.28,4.39
2506,4.28,4.39
2507,4.28,4.39
2509,4.28,4.39
2510,4.28,4.39
2511,4.28,4.39
2512,4.28,4.39
2513,4.28,4.39
2514,4.28,4.39
2515,4.28,4.39
2516,4.28,4.39
2519,4.28,4.39
2520,4.28,4.39
2521,4.27,4.39
2522,4.27,4.38
2523,4.26,4.37
2524,4.26,4.37
2525,4.26,4.37
2526,4.25,4.37
2528,4.26,4.37
2529,4.25,4.35
2530,4.22,4.31
2531,4.18,4.27
2532,4.14,4.23
2533,4.11,4.18
2534,4.06,4.14
2535,4.01,4.10
2537,3.97,4.08
2538,3.95,4.06
2539,3.93,4.04
2540,3.91,4.04
2541,3.91,4.04
2542,3.91,4.04
2543,3.91,4.04
2544,3.91,4.03
2546,3.90,4.00
2547,3.88,3.97
2548,3.84,3.94
2549,3.81,3.91
2550,3.78,3.87
2551,3.74,3.84
2552,3.71,3.81
2553,3.69,3.80
2555,3.68,3.78
2556,3.67,3.78
2557,3.67,3.78
2558,3.68,3.79
2560,3.69,3.80
2561,3.70,3.81
2562,3.70,3.79
2563,3.70,3.78
2565,3.68,3.75
2566,3.67,3.73
2567,3.64,3.71
2568,3.62,3.68
2569,3.59,3.66
2570,3.58,3.65
2571,3.57,3.65
2572,3.57,3.65
2574,3.58,3.66
2575,3.59,3.67
2576,3.62,3.69
2577,3.64,3.70
2578,3.66,3.70
2579,3.66,3.69
2580,3.66,3.68
2582,3.64,3.66
2583,3.63,3.64
2584,3.61,3.62
2585,3.59,3.60
2586,3.58,3.59
2587,3.58,3.59
2588,3.58,3.60
2589,3.59,3.61
2591,3.60,3.62
2592,3.62,3.64
2593,3.65,3.66
2594,3.67,3.67
2595,3.68,3.66
2596,3.68,3.66
2597,3.68,3.64
2598,3.66,3.63
2600,3.65,3.61
2601,3.63,3.59
2603,3.62,3.58
2604,3.61,3.58
2605,3.61,3.58
2606,3.61,3.59
2607,3.63,3.60
2608,3.64,3.62
2610,3.67,3.64
2611,3.70,3.66
2612,3.71,3.66
2613,3.71,3.65
2614,3.71,3.64
2615,3.70,3.63
2616,3.68,3.61
2618,3.67,3.59
2619,3.65,3.58
2620,3.63,3.58
2621,3.63,3.58
2622,3.63,3.58
2623,3.64,3.59
2624,3.65,3.60
2625,3.67,3.62
2627,3.70,3.64
2628,3.71,3.65
2629,3.72,3.64
2630,3.71,3.63
2631,3.70,3.62
2632,3.70,3.60
2633,3.68,3.59
2634,3.66,3.57
2636,3.64,3.56
2637,3.64,3.57
2638,3.63,3.56
2639,3.64,3.57
2640,3.65,3.59
2641,3.66,3.60
2642,3.69,3.62
2643,3.70,3.63
2646,3.72,3.63
2647,3.72,3.62
2648,3.71,3.61
2649,3.70,3.60
2650,3.68,3.59
2651,3.66,3.57
2652,3.65,3.55
2653,3.63,3.55
2655,3.63,3.56
2656,3.63,3.56
2657,3.64,3.57
2658,3.65,3.59
2659,3.67,3.60
2660,3.70,3.62
2661,3.71,3.62
2662,3.72,3.62
2664,3.71,3.61
2665,3.70,3.60
2666,3.69,3.58
2667,3.67,3.57
2668,3.65,3.55
2669,3.64,3.55
2670,3.63,3.55
2672,3.63,3.55
2673,3.63,3.56
2674,3.65,3.57
2675,3.66,3.59
2676,3.69,3.61
2677,3.71,3.62
2678,3.72,3.61
2679,3.71,3.61
2681,3.70,3.59
2682,3.69,3.58
2683,3.68,3.57
2684,3.66,3.55
2685,3.64,3.54
2686,3.63,3.54
2688,3.63,3.54
2689,3.63,3.55
2691,3.64,3.56
2692,3.65,3.58
2693,3.68,3.59
2694,3.70,3.61
2695,3.71,3.61
2696,3.71,3.61
2697,3.71,3.60
2698,3.70,3.58
2700,3.69,3.57
2701,3.67,3.56
2702,3.65,3.54
2703,3.63,3.54
2704,3.63,3.54
2705,3.63,3.54
2706,3.63,3.55
2707,3.65,3.56
2709,3.67,3.58
2710,3.69,3.60
2711,3.70,3.61
2712,3.71,3.60
2713,3.71,3.60
2714,3.70,3.58
2715,3.69,3.57
2716,3.68,3.56
2718,3.66,3.54
2719,3.64,3.53
2720,3.63,3.53
2721,3.63,3.54
2722,3.63,3.54
2723,3.64,3.55
2724,3.66,3.57
2725,3.68,3.59
2727,3.70,3.60
2728,3.71,3.60
2729,3.72,3.60
2731,3.71,3.59
2732,3.70,3.58
2733,3.69,3.56
2734,3.67,3.54
2735,3.65,3.53
2737,3.64,3.53
2738,3.63,3.53
2739,3.63,3.54
2740,3.64,3.55
2741,3.65,3.56
2742,3.67,3.58
2743,3.69,3.59
2744,3.71,3.60
2746,3.72,3.60
2747,3.71,3.59
2748,3.70,3.58
2749,3.69,3.57
2750,3.68,3.55
2751,3.66,3.54
2752,3.64,3.53
2753,3.64,3.53
2755,3.63,3.53
2756,3.64,3.54
2757,3.64,3.55
2758,3.66,3.57
2759,3.68,3.58
2760,3.70,3.60
2761,3.72,3.60
2762,3.72,3.59
2764,3.71,3.58
2765,3.70,3.57
2766,3.69,3.56
2767,3.67,3.54
2768,3.65,3.53
2769,3.64,3.53
2770,3.63,3.53
2771,3.64,3.53
2774,3.64,3.54
2775,3.65,3.56
2776,3.67,3.57
2777,3.70,3.59
2778,3.72,3.60
2779,3.72,3.59
2780,3.72,3.58
2781,3.71,3.57
2783,3.70,3.56
2784,3.68,3.55
2785,3.66,3.53
2786,3.64,3.52
2787,3.64,3.52
2788,3.64,3.53
2789,3.64,3.53
2790,3.65,3.55
2792,3.67,3.56
2793,3.69,3.58
2794,3.71,3.59
2795,3.72,3.59
2796,3.72,3.59
2797,3.71,3.58
2798,3.70,3.56
2799,3.69,3.55
2801,3.67,3.54
2802,3.65,3.52
2803,3.64,3.52
2804,3.64,3.52
2805,3.64,3.53
2806,3.64,3.54
2807,3.66,3.55
2808,3.68,3.57
2810,3.70,3.59
2811,3.72,3.59
2812,3.72,3.59
2813,3.72,3.58
2814,3.71,3.57
2816,3.70,3.55
2817,3.68,3.54
2818,3.66,3.52
2820,3.64,3.52
2821,3.64,3.52
2822,3.64,3.52
2823,3.64,3.53
2824,3.65,3.55
2825,3.67,3.57
2826,3.69,3.58
2827,3.71,3.59
2829,3.72,3.59
2830,3.72,3.58
2831,3.71,3.57
2832,3.70,3.56
2833,3.69,3.55
2834,3.67,3.53
2835,3.65,3.52
2836,3.64,3.52
2838,3.64,3.52
2839,3.64,3.53
2840,3.65,3.54
2841,3.66,3.56
2842,3.68,3.57
2843,3.70,3.59
2844,3.72,3.59
2845,3.73,3.59
2847,3.72,3.58
2848,3.71,3.57
2849,3.70,3.56
2850,3.68,3.54
2851,3.66,3.53
2852,3.64,3.52
2853,3.64,3.52
2854,3.64,3.53
2856,3.64,3.53
2857,3.66,3.55
2859,3.68,3.56
2860,3.70,3.58
2861,3.72,3.59
2862,3.73,3.59
2863,3.73,3.58
2864,3.72,3.57
2866,3.70,3.56
2867,3.69,3.55
2868,3.67,3.53
2869,3.65,3.52
2870,3.64,3.52
2871,3.64,3.52
2872,3.64,3.53
2873,3.65,3.54
2875,3.67,3.56
2876,3.69,3.57
2877,3.71,3.59
2878,3.73,3.59
2879,3.73,3.58
2880,3.72,3.58
2881,3.71,3.56
2882,3.70,3.55
2884,3.68,3.54
2885,3.66,3.52
2886,3.65,3.52
2887,3.64,3.52
2888,3.64,3.53
2889,3.65,3.53
2890,3.66,3.55
2891,3.68,3.56
2893,3.70,3.58
2894,3.72,3.59
2895,3.73,3.59
2896,3.73,3.58
2897,3.72,3.57
2898,3.70,3.56
2899,3.69,3.55
2900,3.67,3.53
2903,3.66,3.52
2904,3.65,3.52
2905,3.65,3.52
2906,3.65,3.53
2907,3.66,3.54
2908,3.67,3.56
2909,3.70,3.57
2910,3.72,3.59
2912,3.73,3.59
2913,3.73,3.59
2914,3.73,3.57
2915,3.71,3.57
2916,3.70,3.55
2917,3.69,3.54
2918,3.67,3.52
2919,3.65,3.52
2921,3.65,3.52
2922,3.65,3.52
2923,3.65,3.53
2924,3.67,3.55
2925,3.69,3.57
2926,3.71,3.58
2927,3.73,3.59
2928,3.74,3.59
2930,3.73,3.58
2931,3.72,3.57
2932,3.71,3.56
2933,3.70,3.54
2934,3.68,3.53
2935,3.66,3.52
2936,3.65,3.52
2937,3.65,3.52
2939,3.66,3.53
2940,3.67,3.55
2941,3.68,3.56
2942,3.70,3.58
2944,3.73,3.59
2945,3.74,3.59
2946,3.74,3.59
2948,3.74,3.58
2949,3.72,3.57
2950,3.71,3.55
2951,3.69,3.54
2952,3.67,3.53
2953,3.66,3.52
2954,3.66,3.53
2955,3.66,3.53
2957,3.67,3.54
2958,3.69,3.56
2959,3.70,3.58
2960,3.73,3.59
2961,3.75,3.60
2962,3.76,3.60
2963,3.75,3.59
2964,3.74,3.58
2966,3.73,3.57
2967,3.71,3.55
2968,3.70,3.54
2969,3.68,3.53
2970,3.67,3.53
2971,3.67,3.54
2972,3.68,3.55
2973,3.69,3.56
2975,3.71,3.57
2976,3.73,3.59
2977,3.76,3.61
2978,3.77,3.61
2979,3.77,3.60
2980,3.77,3.59
2981,3.75,3.58
2982,3.73,3.57
2984,3.71,3.55
2985,3.70,3.54
2987,3.68,3.53
2988,3.68,3.54
2989,3.69,3.55
2990,3.70,3.56
2991,3.72,3.58
2992,3.74,3.59
2994,3.77,3.61
2995,3.79,3.62
2996,3.80,3.61
2997,3.79,3.61
2998,3.78,3.60
2999,3.76,3.58
3000,3.75,3.57
3001,3.72,3.56
3003,3.70,3.55
3004,3.70,3.55
3005,3.70,3.55
3006,3.72,3.57
3007,3.74,3.58
3008,3.76,3.60
3009,3.79,3.62
3010,3.82,3.63
3012,3.83,3.63
3013,3.83,3.63
3014,3.82,3.62
3015,3.81,3.60
3016,3.79,3.59
3017,3.77,3.58
3018,3.75,3.56
3020,3.73,3.56
3021,3.73,3.56
3022,3.74,3.58
3023,3.76,3.59
3024,3.79,3.61
3025,3.81,3.62
3026,3.84,3.64
3027,3.86,3.65
3030,3.87,3.64
3031,3.86,3.63
3032,3.85,3.62
3033,3.83,3.61
3034,3.81,3.59
3035,3.78,3.58
3036,3.76,3.57
3037,3.75,3.57
3039,3.76,3.58
3040,3.77,3.59
3041,3.79,3.61
3042,3.81,3.62
3043,3.84,3.64
3044,3.87,3.65
3045,3.88,3.65
3046,3.88,3.64
3048,3.86,3.63
3049,3.85,3.62
3050,3.83,3.61
3051,3.80,3.59
3052,3.78,3.58
3053,3.76,3.57
3054,3.76,3.58
3055,3.77,3.59
3057,3.78,3.60
3058,3.81,3.62
3059,3.83,3.63
3060,3.86,3.65
3061,3.88,3.66
3062,3.88,3.65
3063,3.87,3.64
3064,3.86,3.63
3066,3.84,3.61
3067,3.81,3.60
3068,3.79,3.58
3069,3.77,3.57
3070,3.75,3.57
3072,3.76,3.58
3073,3.77,3.59
3074,3.79,3.61
3076,3.82,3.63
3077,3.84,3.65
3078,3.87,3.66
3079,3.88,3.66
3080,3.88,3.65
3081,3.86,3.63
3082,3.84,3.62
3084,3.82,3.61
3085,3.80,3.59
3086,3.77,3.58
3087,3.76,3.58
3088,3.75,3.58
3089,3.76,3.59
3090,3.78,3.60
3091,3.80,3.62
3093,3.83,3.64
3094,3.86,3.66
3095,3.88,3.66
3096,3.88,3.65
3097,3.87,3.64
3098,3.85,3.63
3099,3.83,3.61
3100,3.81,3.60
3102,3.78,3.58
3103,3.76,3.57
3104,3.75,3.58
3105,3.75,3.58
3106,3.77,3.60
3107,3.79,3.61
3108,3.82,3.63
3109,3.84,3.65
3111,3.87,3.66
3112,3.87,3.66
3113,3.87,3.65
3115,3.85,3.63
3116,3.83,3.62
3117,3.81,3.60
3118,3.79,3.59
3120,3.76,3.58
3121,3.75,3.57
3122,3.75,3.58
3123,3.76,3.59
3124,3.78,3.61
3125,3.80,3.62
3126,3.83,3.64
3127,3.86,3.66
3129,3.87,3.66
3130,3.87,3.65
3131,3.86,3.64
3132,3.84,3.62
3133,3.82,3.61
3134,3.80,3.60
3135,3.77,3.58
3136,3.75,3.57
3138,3.74,3.57
3139,3.75,3.58
3140,3.77,3.60
3141,3.79,3.62
3142,3.82,3.64
3143,3.84,3.65
3144,3.87,3.66
3145,3.87,3.65
3147,3.86,3.64
3148,3.85,3.63
3149,3.82,3.62
3150,3.80,3.60
3151,3.78,3.59
3152,3.75,3.57
3153,3.74,3.57
3154,3.74,3.58
3156,3.76,3.59
3158,3.78,3.61
3159,3.81,3.63
3160,3.83,3.64
3161,3.86,3.66
3162,3.87,3.65
3163,3.86,3.64
3165,3.85,3.63
3166,3.83,3.62
3167,3.81,3.60
3168,3.79,3.59
3169,3.76,3.57
3170,3.74,3.57
3171,3.74,3.57
3172,3.75,3.58
3174,3.77,3.60
3175,3.80,3.62
3176,3.82,3.63
3177,3.85,3.65
3178,3.87,3.65
3179,3.87,3.65
3180,3.86,3.64
3181,3.84,3.62
3183,3.82,3.60
3184,3.80,3.59
3185,3.77,3.58
3186,3.75,3.57
3187,3.74,3.57
3188,3.75,3.58
3189,3.77,3.59
3190,3.79,3.61
3192,3.81,3.63
3193,3.84,3.65
3194,3.86,3.65
3195,3.87,3.65
3196,3.86,3.64
3197,3.85,3.63
3198,3.83,3.61
3200,3.81,3.60
3202,3.78,3.58
3203,3.76,3.57
3204,3.75,3.57
3205,3.75,3.57
3206,3.76,3.59
3207,3.78,3.60
3208,3.81,3.62
3209,3.83,3.64
3211,3.86,3.65
3212,3.88,3.65
3213,3.87,3.64
3214,3.86,3.63
3215,3.84,3.62
3216,3.82,3.60
3217,3.80,3.59
3218,3.77,3.57
3220,3.75,3.57
3221,3.75,3.57
3222,3.76,3.58
3223,3.77,3.59
3224,3.78,3.61
3225,3.80,3.62
3226,3.83,3.64
3227,3.85,3.64
3229,3.85,3.64
3230,3.84,3.62
3231,3.82,3.61
3232,3.80,3.60
3233,3.78,3.58
3234,3.76,3.57
3235,3.73,3.56
3236,3.72,3.55
3238,3.72,3.56
3239,3.72,3.57
3240,3.74,3.58
3241,3.76,3.59
3243,3.78,3.61
3244,3.80,3.62
3245,3.81,3.61
3246,3.80,3.60
3248,3.78,3.59
3249,3.77,3.58
3250,3.75,3.56
3251,3.72,3.55
3252,3.70,3.53
3253,3.69,3.53
3254,3.69,3.53
3255,3.69,3.54
3257,3.70,3.55
3258,3.71,3.56
3259,3.73,3.58
3260,3.75,3.59
3261,3.76,3.59
3262,3.76,3.59
3263,3.75,3.57
3264,3.74,3.56
3266,3.72,3.55
3267,3.70,3.54
3268,3.68,3.52
3269,3.67,3.51
3270,3.66,3.52
3271,3.66,3.52
3272,3.67,3.53
3273,3.68,3.54
3275,3.70,3.56
3276,3.72,3.58
3277,3.74,3.58
3278,3.75,3.58
3279,3.74,3.57
3280,3.73,3.56
3281,3.71,3.54
3282,3.70,3.53
3284,3.68,3.52
3286,3.66,3.51
3287,3.65,3.51
3288,3.65,3.51
3289,3.65,3.52
3290,3.66,3.53
3291,3.68,3.55
3292,3.70,3.56
3294,3.72,3.58
3295,3.74,3.58
3296,3.74,3.57
3297,3.73,3.56
3298,3.72,3.55
3299,3.70,3.54
3300,3.69,3.52
3301,3.67,3.51
3303,3.65,3.51
3304,3.65,3.51
3305,3.65,3.51
3306,3.66,3.52
3307,3.67,3.54
3308,3.69,3.56
3309,3.71,3.57
3310,3.73,3.58
3312,3.74,3.57
3313,3.73,3.56
3314,3.72,3.55
3315,3.71,3.54
3316,3.69,3.53
3317,3.68,3.51
3318,3.66,3.51
3320,3.65,3.50
3321,3.65,3.51
3322,3.65,3.52
3323,3.66,3.53
3324,3.68,3.55
3325,3.70,3.56
3326,3.72,3.58
3328,3.74,3.58
3330,3.73,3.57
3331,3.73,3.56
3332,3.71,3.55
3333,3.70,3.53
3334,3.68,3.52
3335,3.66,3.51
3336,3.65,3.51
3337,3.65,3.51
3339,3.65,3.51
3340,3.65,3.53
3341,3.67,3.55
3342,3.69,3.56
3343,3.71,3.57
3344,3.73,3.58
3345,3.73,3.57
3346,3.73,3.57
3348,3.72,3.55
3349,3.70,3.54
3350,3.69,3.53
3351,3.67,3.52
3352,3.65,3.51
3353,3.65,3.51
3354,3.65,3.51
3355,3.65,3.52
3357,3.66,3.53
3358,3.68,3.55
3359,3.70,3.57
3360,3.72,3.58
3361,3.73,3.58
3362,3.73,3.57
3363,3.72,3.56
3364,3.71,3.54
3366,3.69,3.53
3367,3.68,3.52
3368,3.66,3.51
3369,3.65,3.51
3371,3.65,3.51
3372,3.65,3.52
3373,3.66,3.53
3374,3.68,3.55
3376,3.70,3.56
3377,3.72,3.58
3378,3.73,3.57
3379,3.73,3.57
3380,3.73,3.56
3381,3.71,3.55
3382,3.70,3.54
3384,3.68,3.52
3385,3.66,3.51
3386,3.64,3.51
3387,3.64,3.51
3388,3.64,3.51
3389,3.65,3.52
3390,3.66,3.53
3391,3.69,3.55
3393,3.71,3.57
3394,3.73,3.57
3395,3.73,3.57
3396,3.73,3.56
3397,3.72,3.55
3398,3.70,3.54
3399,3.69,3.53
3400,3.67,3.51
3402,3.65,3.50
3403,3.64,3.50
3404,3.64,3.50
3405,3.65,3.51
3406,3.66,3.52
3407,3.67,3.54
3408,3.70,3.56
3409,3.72,3.58
3411,3.73,3.57
3412,3.73,3.57
3414,3.73,3.56
3415,3.71,3.55
3416,3.70,3.54
3417,3.69,3.52
3418,3.67,3.51
3419,3.65,3.51
3421,3.65,3.51
3422,3.65,3.52
3423,3.66,3.52
3424,3.67,3.54
3425,3.70,3.56
3426,3.72,3.58
3427,3.74,3.58
3428,3.74,3.58
3430,3.74,3.57
3431,3.73,3.56
3432,3.71,3.55
3433,3.70,3.54
3434,3.68,3.52
3435,3.66,3.52
3436,3.65,3.52
3437,3.65,3.52
3439,3.66,3.53
3440,3.67,3.54
3441,3.69,3.56
3442,3.71,3.58
3443,3.73,3.59
3444,3.75,3.59
3445,3.74,3.59
3446,3.74,3.58
3448,3.72,3.56
3449,3.71,3.55
3450,3.69,3.54
3451,3.67,3.53
3452,3.66,3.52
3453,3.66,3.52
3454,3.66,3.53
3456,3.67,3.54
3458,3.68,3.56
3459,3.70,3.58
3460,3.73,3.59
3461,3.75,3.60
3462,3.76,3.60
3463,3.75,3.59
3464,3.74,3.58
3465,3.72,3.57
3467,3.71,3.55
3468,3.69,3.54
3469,3.67,3.53
3470,3.67,3.54
3471,3.67,3.54
3472,3.68,3.56
3473,3.70,3.57
3474,3.73,3.59
3476,3.75,3.61
3477,3.78,3.63
3478,3.80,3.63
3479,3.80,3.63
3480,3.79,3.62
3481,3.77,3.61
3482,3.76,3.60
3483,3.74,3.58
3485,3.72,3.57
3486,3.71,3.57
3487,3.71,3.58
3488,3.73,3.59
3489,3.75,3.61
3490,3.77,3.63
3491,3.80,3.65
3492,3.83,3.67
3494,3.86,3.70
3495,3.89,3.71
3496,3.92,3.73
3497,3.95,3.75
3499,3.98,3.78
3500,4.02,3.80
3501,4.05,3.82
3502,4.08,3.85
3504,4.11,3.87
3505,4.13,3.89
3506,4.16,3.91
3507,4.18,3.93
3508,4.21,3.95
3509,4.23,3.97
3510,4.25,3.98
3511,4.27,4.00
3513,4.29,4.02
3514,4.31,4.04
3515,4.33,4.05
3516,4.35,4.07
3517,4.36,4.08
3518,4.37,4.10
3519,4.39,4.11
3520,4.40,4.12
3522,4.41,4.13
3523,4.42,4.14
3524,4.42,4.15
3525,4.43,4.16
3526,4.43,4.17
3527,4.44,4.17
3528,4.44,4.18
3529,4.44,4.19
3531,4.44,4.20
3532,4.45,4.20
3533,4.45,4.21
3534,4.45,4.21
3535,4.44,4.22
3536,4.44,4.22
3537,4.44,4.23
3538,4.44,4.23
3540,4.43,4.23
3542,4.43,4.24
3543,4.43,4.24
3544,4.42,4.24
3545,4.42,4.25
3546,4.41,4.25
3547,4.41,4.25
3549,4.40,4.25
3550,4.40,4.26
3551,4.40,4.26
3552,4.39,4.26
3553,4.39,4.26
3554,4.39,4.26
3555,4.38,4.27
3556,4.38,4.27
3558,4.37,4.27
3559,4.37,4.27
3560,4.37,4.28
3561,4.36,4.28
3562,4.36,4.28
3563,4.36,4.28
3564,4.35,4.29
3565,4.35,4.29
3567,4.35,4.29
3568,4.35,4.29
3569,4.35,4.30
3570,4.35,4.30
3571,4.34,4.30
3572,4.34,4.31
3573,4.34,4.31
3574,4.34,4.31
3576,4.34,4.32
3577,4.33,4.32
3578,4.33,4.32
3579,4.33,4.32
3580,4.33,4.33
3581,4.33,4.33
3582,4.33,4.33
3585,4.33,4.34
3586,4.33,4.34
3587,4.32,4.34
3588,4.32,4.35
3589,4.32,4.35
3590,4.32,4.35
3591,4.32,4.35
3593,4.32,4.35
3594,4.32,4.36
3595,4.32,4.36
3596,4.32,4.36
3597,4.32,4.37
3598,4.32,4.37
3599,4.32,4.37
3600,4.32,4.38
3602,4.32,4.38
3603,4.32,4.38
3604,4.32,4.38
3605,4.32,4.39
3606,4.32,4.39
3607,4.32,4.40
3608,4.32,4.40
3609,4.32,4.40
3611,4.32,4.41
3612,4.32,4.41
3613,4.32,4.41
3614,4.32,4.42
3615,4.32,4.42
3616,4.32,4.42
3617,4.32,4.42
3618,4.32,4.43
3620,4.32,4.43
3621,4.32,4.43
3622,4.32,4.44
3623,4.32,4.44
3624,4.32,4.45
3625,4.32,4.45
3627,4.32,4.45
3628,4.32,4.45
3630,4.32,4.46
3631,4.32,4.46
3632,4.32,4.46
3633,4.32,4.47
3634,4.32,4.47
3635,4.32,4.47
3636,4.32,4.47
3638,4.32,4.48
3639,4.32,4.49
3640,4.32,4.49
3641,4.32,4.49
3642,4.32,4.49
3643,4.32,4.50
3644,4.32,4.50
3645,4.32,4.50
3647,4.32,4.51
3648,4.32,4.51
3649,4.32,4.51
3650,4.32,4.52
3651,4.32,4.52
3652,4.32,4.52
3653,4.32,4.53
3654,4.32,4.53
3656,4.32,4.53
3657,4.32,4.54
3658,4.32,4.54
3659,4.32,4.54
3660,4.32,4.55
3661,4.32,4.55
3662,4.32,4.55
3664,4.32,4.55
3665,4.32,4.56
3666,4.32,4.56
3667,4.32,4.56
3668,4.32,4.57
3670,4.32,4.57
3671,4.32,4.57
3672,4.32,4.57
3674,4.32,4.57
3675,4.32,4.58
3676,4.32,4.58
3677,4.32,4.58
3678,4.32,4.59
3679,4.32,4.59
3680,4.32,4.59
3681,4.32,4.59
3683,4.32,4.60
3684,4.32,4.60
3685,4.32,4.60
3686,4.32,4.60
3687,4.32,4.61
3688,4.32,4.61
3689,4.32,4.61
3691,4.32,4.61
3692,4.32,4.62
3693,4.32,4.62
3694,4.32,4.62
3695,4.32,4.63
3696,4.32,4.63
3697,4.32,4.63
3698,4.32,4.63
3700,4.32,4.64
3701,4.32,4.64
3702,4.32,4.64
3703,4.32,4.64
3704,4.32,4.65
3705,4.32,4.65
3706,4.32,4.66
3707,4.32,4.66
3709,4.32,4.66
3710,4.32,4.67
3712,4.32,4.67
3713,4.32,4.67
3714,4.32,4.68
3715,4.32,4.68
3716,4.32,4.68
3718,4.32,4.68
3719,4.32,4.68
3720,4.32,4.68
3721,4.32,4.69
3722,4.32,4.69
3723,4.32,4.69
3724,4.32,4.69
3725,4.32,4.69
3727,4.32,4.70
3728,4.32,4.70
3729,4.31,4.70
3730,4.31,4.70
3731,4.31,4.70
3732,4.31,4.70
3733,4.32,4.70
3734,4.31,4.70
3736,4.31,4.70
3737,4.31,4.70
3738,4.31,4.70
3739,4.31,4.70
3740,4.31,4.71
3741,4.31,4.71
3742,4.31,4.71
3743,4.31,4.71
3745,4.31,4.71
3746,4.31,4.71
3747,4.31,4.71
3748,4.31,4.71
3749,4.31,4.71
3750,4.31,4.71
3751,4.31,4.71
3753,4.31,4.71
3755,4.31,4.71
3756,4.31,4.71
3757,4.31,4.71
3758,4.31,4.71
3759,4.31,4.71
3760,4.31,4.72
3761,4.31,4.72
3763,4.31,4.72
3764,4.31,4.72
3765,4.31,4.72
3766,4.31,4.72
3767,4.31,4.72
3768,4.31,4.72
3769,4.31,4.72
3771,4.31,4.72
3772,4.31,4.72
3773,4.31,4.72
3774,4.31,4.72
3775,4.31,4.72
3776,4.31,4.72
3777,4.31,4.72
3779,4.31,4.72
3780,4.31,4.72
3781,4.31,4.72
3782,4.31,4.72
3783,4.31,4.72
3784,4.31,4.72
3785,4.31,4.72
3786,4.31,4.72
3788,4.31,4.72
3789,4.31,4.72
3790,4.31,4.72
3791,4.31,4.72
3792,4.31,4.72
3793,4.31,4.72
3794,4.31,4.72
3796,4.31,4.72
3798,4.32,4.72
3799,4.31,4.71
3800,4.31,4.71
3801,4.31,4.72
3802,4.31,4.71
3803,4.32,4.71
3805,4.31,4.71
3806,4.31,4.71
3807,4.32,4.71
3808,4.31,4.71
3809,4.31,4.71
3810,4.31,4.71
3811,4.32,4.71
3812,4.31,4.70
3814,4.31,4.70
3815,4.32,4.70
3816,4.32,4.70
3817,4.31,4.70
3818,4.31,4.70
3819,4.31,4.69
3820,4.31,4.69
3821,4.31,4.69
3823,4.31,4.69
3824,4.31,4.69
3825,4.31,4.69
3826,4.31,4.68
3827,4.31,4.68
3828,4.31,4.68
3829,4.31,4.68
3831,4.31,4.67
3832,4.31,4.67
3833,4.31,4.67
3834,4.31,4.66
3835,4.31,4.66
3836,4.31,4.66
3837,4.31,4.66
3838,4.31,4.66
3841,4.31,4.65
3842,4.31,4.65
3843,4.31,4.65
3844,4.31,4.65
3845,4.30,4.65
3846,4.31,4.64
3847,4.30,4.64
3848,4.30,4.64
3850,4.30,4.64
3851,4.30,4.64
3852,4.30,4.63
3853,4.30,4.63
3854,4.30,4.63
3855,4.30,4.63
3856,4.30,4.63
3857,4.30,4.63
3859,4.30,4.63
3860,4.30,4.62
3861,4.30,4.62
3862,4.30,4.62
3863,4.30,4.62
3864,4.30,4.62
3865,4.30,4.61
3866,4.30,4.61
3868,4.30,4.61
3869,4.30,4.61
3870,4.30,4.61
3871,4.30,4.61
3872,4.30,4.60
3873,4.30,4.60
3874,4.30,4.60
3875,4.30,4.60
3877,4.30,4.60
3878,4.30,4.59
3879,4.30,4.59
3880,4.30,4.59
3881,4.30,4.59
3883,4.31,4.58
3884,4.30,4.58
3885,4.31,4.57
3887,4.31,4.57
3888,4.31,4.57
3889,4.31,4.57
3890,4.31,4.56
3891,4.31,4.56
3892,4.30,4.56
3893,4.30,4.55
3894,4.31,4.55
3896,4.30,4.54
3897,4.31,4.54
3898,4.30,4.54
3899,4.30,4.53
3900,4.30,4.53
3901,4.30,4.52
3902,4.30,4.51
3904,4.30,4.51
3905,4.30,4.51
3906,4.30,4.50
3907,4.30,4.50
3908,4.30,4.50
3909,4.30,4.49
3910,4.30,4.49
3911,4.30,4.48
3913,4.30,4.48
3914,4.30,4.47
3915,4.30,4.47
3916,4.30,4.46
3917,4.30,4.46
3918,4.30,4.45
3919,4.30,4.45
3920,4.30,4.44
3922,4.30,4.44
3923,4.30,4.43
3924,4.30,4.43
3926,4.30,4.42
3927,4.30,4.42
3928,4.29,4.41
3929,4.29,4.41
3930,4.29,4.40
3932,4.29,4.39
3933,4.29,4.39
3934,4.29,4.38
3935,4.29,4.38
3936,4.29,4.37
3937,4.29,4.37
3938,4.29,4.36
3939,4.29,4.35
3941,4.29,4.35
3942,4.29,4.35
3943,4.29,4.35
3944,4.29,4.34
3945,4.29,4.34
3946,4.29,4.33
3947,4.29,4.32
3948,4.29,4.32
3950,4.29,4.31
3951,4.29,4.31
3952,4.29,4.30
3953,4.29,4.30
3954,4.28,4.29
3955,4.28,4.29
3956,4.28,4.28
3958,4.28,4.28
3959,4.28,4.27
3960,4.28,4.27
3961,4.28,4.27
3962,4.28,4.26
3963,4.28,4.26
3964,4.28,4.25
3965,4.28,4.25
3968,4.28,4.24
3969,4.28,4.24
3970,4.28,4.23
3971,4.28,4.23
3972,4.28,4.23
3973,4.28,4.22
3974,4.28,4.22
3975,4.28,4.21
3977,4.28,4.21
3978,4.28,4.21
3979,4.28,4.20
3980,4.28,4.20
3981,4.28,4.20
3982,4.28,4.19
3983,4.28,4.19
3984,4.28,4.19
3986,4.28,4.18
3987,4.28,4.18
3988,4.28,4.18
3989,4.28,4.17
3990,4.28,4.17
3991,4.28,4.17
3992,4.28,4.16
3993,4.28,4.16
3995,4.28,4.16
3996,4.28,4.16
3997,4.28,4.15
3998,4.28,4.15
3999,4.28,4.15
4000,4.28,4.15
4001,4.28,4.15
4002,4.28,4.14
4004,4.29,4.14
4005,4.28,4.14
4006,4.28,4.13
4007,4.28,4.13
4008,4.28,4.13
4009,4.28,4.13
4011,4.28,4.13
4012,4.28,4.13
4014,4.28,4.13
4015,4.28,4.13
4016,4.29,4.13
4017,4.28,4.13
4018,4.29,4.12
4019,4.29,4.12
4020,4.29,4.12
4021,4.29,4.12
4023,4.29,4.12
4024,4.29,4.12
4025,4.29,4.12
4026,4.29,4.11
4027,4.29,4.11
4028,4.29,4.11
4029,4.29,4.11
4031,4.29,4.11
4032,4.29,4.11
4033,4.29,4.11
4034,4.29,4.11
4035,4.29,4.11
4036,4.29,4.11
4037,4.29,4.11
4039,4.29,4.11
4040,4.29,4.11
4041,4.29,4.11
4042,4.29,4.11
4043,4.29,4.11
4044,4.29,4.10
4045,4.29,4.10
4046,4.29,4.10
4048,4.29,4.10
4049,4.29,4.10
4050,4.29,4.10
4051,4.29,4.10
4052,4.29,4.10
4054,4.29,4.10
4055,4.29,4.10
4056,4.29,4.10
4058,4.29,4.10
4059,4.29,4.10
4060,4.30,4.10
4061,4.29,4.10
4062,4.30,4.10
4063,4.29,4.10
4064,4.30,4.10
4065,4.29,4.10
4067,4.30,4.10
4068,4.30,4.10
4069,4.30,4.10
4070,4.30,4.10
4071,4.30,4.10
4072,4.30,4.10
4073,4.30,4.10
4074,4.30,4.10
4076,4.30,4.10
4077,4.30,4.11
4078,4.30,4.11
4079,4.30,4.11
4080,4.30,4.10
4081,4.30,4.11
4082,4.30,4.11
4083,4.30,4.11
4085,4.30,4.11
4086,4.30,4.11
4087,4.30,4.10
4088,4.30,4.11
4089,4.30,4.11
4090,4.30,4.11
4091,4.30,4.11
4092,4.30,4.11
4094,4.30,4.11
4096,4.30,4.11
4097,4.30,4.11
4098,4.30,4.11
4099,4.30,4.11
4100,4.30,4.11
4101,4.30,4.11
4103,4.30,4.11
4104,4.30,4.11
4105,4.30,4.11
4106,4.30,4.11
4107,4.30,4.11
4108,4.30,4.11
4109,4.30,4.11
4110,4.30,4.11
4112,4.30,4.11
4113,4.30,4.11
4114,4.30,4.11
4115,4.30,4.11
4116,4.30,4.11
4117,4.30,4.11
4118,4.30,4.11
4119,4.30,4.11
4121,4.30,4.11
4122,4.30,4.11
4123,4.30,4.12
4124,4.30,4.11
4125,4.30,4.12
4126,4.30,4.12
4127,4.30,4.12
4128,4.30,4.12
4130,4.30,4.12
4131,4.30,4.12
4132,4.30,4.12
4133,4.30,4.12
4134,4.30,4.12
4135,4.30,4.12
4136,4.30,4.13
4137,4.30,4.13
4140,4.30,4.13
4141,4.30,4.13
4142,4.30,4.13
4143,4.30,4.13
4144,4.30,4.13
4145,4.30,4.13
4146,4.30,4.13
4148,4.30,4.13
4149,4.30,4.13
4150,4.30,4.13
4151,4.30,4.13
4152,4.30,4.13
4153,4.30,4.13
4154,4.30,4.13
4155,4.30,4.13
4157,4.30,4.13
4158,4.30,4.13
4159,4.30,4.13
4160,4.30,4.13
4161,4.30,4.13
4162,4.30,4.13
4163,4.30,4.13
4165,4.30,4.13
4166,4.30,4.14
4167,4.30,4.14
4168,4.30,4.14
4169,4.30,4.14
4170,4.30,4.14
4171,4.30,4.14
4172,4.30,4.15
4174,4.30,4.15
4175,4.30,4.15
4176,4.30,4.15
4177,4.30,4.16
4178,4.30,4.16
4179,4.30,4.16
4180,4.30,4.16
4182,4.30,4.17
4184,4.30,4.17
4185,4.30,4.17
4186,4.30,4.18
4187,4.30,4.18
4188,4.30,4.18
4189,4.30,4.18
4190,4.30,4.19
4191,4.30,4.19
4193,4.30,4.19
4194,4.30,4.20
4195,4.30,4.20
4196,4.30,4.20
4197,4.30,4.20
4198,4.30,4.21
4199,4.30,4.21
4200,4.30,4.21
4202,4.30,4.21
4203,4.30,4.22
4204,4.30,4.22
4205,4.30,4.22
4206,4.30,4.23
4207,4.30,4.23
4208,4.30,4.23
4209,4.30,4.23
4211,4.30,4.24
4212,4.30,4.24
4213,4.30,4.24
4214,4.30,4.24
4215,4.30,4.25
4216,4.30,4.25
4217,4.30,4.25
4218,4.30,4.25
4220,4.30,4.26
4221,4.30,4.26
4222,4.30,4.26
4224,4.30,4.26
4225,4.30,4.27
4226,4.30,4.27
4227,4.30,4.27
4228,4.30,4.27
4230,4.30,4.28
4231,4.29,4.28
4232,4.30,4.28
4233,4.30,4.29
4234,4.29,4.29
4235,4.30,4.29
4236,4.29,4.29
4237,4.30,4.29
4239,4.30,4.30
4240,4.30,4.30
4241,4.30,4.30
4242,4.29,4.30
4243,4.29,4.30
4244,4.29,4.31
4245,4.29,4.31
4246,4.29,4.31
4248,4.29,4.31
4249,4.29,4.31
4250,4.29,4.31
4251,4.29,4.32
4252,4.29,4.32
4253,4.29,4.32
4254,4.29,4.32
4256,4.29,4.33
4257,4.29,4.33
4258,4.29,4.33
4259,4.29,4.33
4260,4.29,4.33
4261,4.29,4.34
4262,4.29,4.34
4263,4.29,4.34
4265,4.29,4.34
4267,4.29,4.34
4268,4.29,4.34
4269,4.29,4.35
4270,4.29,4.35
4271,4.29,4.35
4272,4.29,4.35
4274,4.29,4.35
4275,4.29,4.35
4276,4.29,4.35
4277,4.29,4.35
4278,4.29,4.35
4279,4.29,4.35
4280,4.29,4.36
4281,4.29,4.36
4283,4.29,4.36
4284,4.29,4.36
4285,4.29,4.36
4286,4.29,4.37
4287,4.29,4.37
4288,4.29,4.37
4289,4.29,4.37
4290,4.29,4.38
4292,4.29,4.38
4293,4.29,4.39
4294,4.29,4.39
4295,4.29,4.39
4296,4.29,4.40
4297,4.29,4.40
4298,4.30,4.40
4299,4.30,4.40
4301,4.29,4.41
4302,4.30,4.41
4303,4.30,4.41
4304,4.30,4.42
4305,4.30,4.42
4306,4.30,4.43
4307,4.30,4.43
4308,4.30,4.44
4311,4.30,4.44
4312,4.30,4.44
4313,4.30,4.44
4314,4.30,4.45
4315,4.30,4.45
4316,4.30,4.45
4317,4.30,4.46
4318,4.29,4.46
4320,4.30,4.46
4321,4.30,4.47
4322,4.30,4.47
4323,4.30,4.47
4324,4.30,4.48
4325,4.30,4.48
4326,4.30,4.49
4327,4.30,4.49
4329,4.29,4.49
4330,4.30,4.50
4331,4.30,4.50
4332,4.29,4.50
4333,4.29,4.50
4334,4.30,4.51
4335,4.30,4.51
4336,4.29,4.51
4338,4.29,4.52
4339,4.29,4.52
4340,4.29,4.53
4341,4.29,4.53
4342,4.29,4.53
4343,4.29,4.54
4344,4.29,4.54
4345,4.29,4.54
4347,4.29,4.55
4348,4.29,4.55
4349,4.29,4.55
4350,4.29,4.56
4352,4.29,4.56
4353,4.29,4.56
4354,4.29,4.57
4355,4.29,4.57
4357,4.29,4.57
4358,4.29,4.57
4359,4.29,4.58
4360,4.29,4.58
4361,4.29,4.59
4362,4.29,4.59
4363,4.29,4.59
4364,4.29,4.59
4366,4.29,4.60
4367,4.29,4.60
4368,4.30,4.60
4369,4.29,4.60
4370,4.29,4.61
4371,4.29,4.61
4372,4.29,4.62
4373,4.29,4.62
4375,4.29,4.62
4376,4.29,4.63
4377,4.29,4.63
4378,4.29,4.63
4379,4.29,4.63
4380,4.29,4.64
4381,4.29,4.64
4382,4.29,4.64
4384,4.29,4.64
4385,4.29,4.64
4386,4.29,4.64
4387,4.29,4.65
4388,4.29,4.65
4389,4.29,4.65
4390,4.29,4.65
4391,4.29,4.65
4393,4.29,4.65
4395,4.29,4.65
4396,4.29,4.65
4397,4.29,4.65
4398,4.29,4.65
4399,4.29,4.65
4400,4.29,4.65
4401,4.28,4.65
4403,4.29,4.64
4404,4.29,4.64
4405,4.28,4.65
4406,4.29,4.64
4407,4.29,4.64
4408,4.28,4.64
4409,4.29,4.64
4410,4.28,4.64
4412,4.29,4.63
4413,4.28,4.63
4414,4.29,4.63
4415,4.28,4.63
4416,4.28,4.62
4417,4.28,4.62
4418,4.29,4.62
4419,4.29,4.62
4421,4.29,4.61
4422,4.28,4.61
4423,4.28,4.61
4424,4.28,4.61
4425,4.28,4.60
4426,4.28,4.60
4427,4.28,4.60
4428,4.28,4.59
4430,4.28,4.59
4431,4.28,4.59
4432,4.28,4.58
4433,4.29,4.58
4434,4.28,4.58
4435,4.28,4.57
4436,4.28,4.57
4438,4.28,4.57
4440,4.28,4.57
4441,4.28,4.56
4442,4.28,4.56
4443,4.28,4.56
4444,4.28,4.55
4445,4.28,4.55
4446,4.28,4.55
4447,4.28,4.54
4449,4.28,4.54
4450,4.28,4.54
4451,4.28,4.53
4452,4.28,4.53
4453,4.28,4.53
4454,4.28,4.52
4455,4.28,4.52
4457,4.28,4.52
4458,4.28,4.51
4459,4.27,4.51
4460,4.27,4.51
4461,4.27,4.50
4462,4.27,4.50
4463,4.27,4.50
4464,4.27,4.49
4466,4.27,4.49
4467,4.27,4.49
4468,4.27,4.48
4469,4.27,4.48
4470,4.27,4.48
4471,4.27,4.48
4472,4.27,4.48
4473,4.27,4.47
4475,4.27,4.47
4476,4.27,4.47
4477,4.27,4.47
4478,4.27,4.46
4480,4.27,4.46
4481,4.27,4.46
4482,4.27,4.46
4484,4.27,4.46
4485,4.27,4.45
4486,4.27,4.45
4487,4.27,4.45
4488,4.27,4.45
4489,4.27,4.45
4490,4.27,4.45
4491,4.27,4.44
4493,4.27,4.44
4494,4.27,4.44
4495,4.27,4.44
4496,4.27,4.44
4497,4.27,4.44
4498,4.27,4.44
4499,4.27,4.44
4500,4.27,4.43
4502,4.27,4.43
4503,4.27,4.43
4504,4.27,4.43
4505,4.27,4.43
4506,4.27,4.43
4507,4.27,4.43
4508,4.27,4.43
4509,4.27,4.43
4511,4.27,4.43
4512,4.27,4.43
4513,4.27,4.43
4514,4.27,4.43
4515,4.27,4.43
4516,4.27,4.43
4517,4.27,4.43
4518,4.27,4.42
4520,4.27,4.43
4521,4.27,4.42
4523,4.27,4.42
4524,4.27,4.43
4525,4.27,4.42
4526,4.27,4.42
4527,4.27,4.43
4528,4.27,4.42
4530,4.27,4.42
4531,4.27,4.42
4532,4.28,4.42
4533,4.27,4.42
4534,4.28,4.42
4535,4.28,4.42
4536,4.28,4.42
4537,4.28,4.42
4539,4.28,4.42
4540,4.28,4.43
4541,4.28,4.42
4542,4.28,4.43
4543,4.28,4.42
4544,4.28,4.43
4545,4.28,4.42
4546,4.28,4.43
4548,4.28,4.42
4549,4.28,4.42
4550,4.28,4.42
4551,4.28,4.42
4552,4.28,4.42
4553,4.28,4.42
4554,4.28,4.42
4555,4.28,4.43
4557,4.28,4.42
4558,4.28,4.42
4559,4.28,4.43
4560,4.28,4.43
4561,4.28,4.43
4562,4.28,4.43
4563,4.28,4.43
4564,4.28,4.43
4567,4.28,4.42
4568,4.28,4.43
4569,4.28,4.43
4570,4.28,4.43
4571,4.28,4.43
4572,4.28,4.43
4573,4.28,4.43
4574,4.28,4.43
4576,4.28,4.43
4577,4.28,4.42
4578,4.28,4.42
4579,4.28,4.42
4580,4.28,4.42
4581,4.28,4.42
4582,4.28,4.42
4583,4.28,4.42
4585,4.28,4.42
4586,4.28,4.42
4587,4.28,4.42
4588,4.28,4.42
4589,4.28,4.42
4590,4.28,4.42
4591,4.28,4.42
4592,4.28,4.42
4594,4.28,4.42
4595,4.28,4.42
4596,4.28,4.42
4597,4.28,4.42
4598,4.28,4.42
4599,4.28,4.42
4600,4.28,4.42
4601,4.28,4.42
4603,4.28,4.42
4604,4.28,4.42
4605,4.28,4.42
4606,4.28,4.42
4608,4.28,4.42
4609,4.28,4.42
4610,4.28,4.41
4611,4.28,4.42
4613,4.28,4.42
4614,4.28,4.42
4615,4.28,4.42
4616,4.28,4.42
4617,4.28,4.42
4618,4.28,4.42
4619,4.28,4.41
4620,4.28,4.41
4622,4.28,4.41
4623,4.28,4.41
4624,4.28,4.41
4625,4.28,4.41
4626,4.28,4.41
4627,4.28,4.41
4628,4.28,4.41
4629,4.28,4.41
4631,4.28,4.41
4632,4.28,4.41
4633,4.28,4.41
4634,4.28,4.41
4635,4.28,4.41
4636,4.28,4.41
4637,4.28,4.41
4638,4.28,4.41
4640,4.28,4.41
4641,4.28,4.41
4642,4.28,4.41
4643,4.28,4.41
4644,4.28,4.41
4645,4.28,4.41
4646,4.28,4.41
4647,4.28,4.41
4649,4.28,4.41
4651,4.28,4.41
4652,4.28,4.41
4653,4.28,4.41
4654,4.28,4.41
4655,4.28,4.41
4656,4.28,4.41
4657,4.28,4.41
4659,4.28,4.41
4660,4.28,4.41
4661,4.28,4.41
4662,4.28,4.41
4663,4.28,4.42
4664,4.28,4.41
4665,4.27,4.39
4666,4.25,4.36
4668,4.22,4.33
4669,4.19,4.32
4670,4.18,4.31
4671,4.17,4.30
4672,4.16,4.30
4673,4.16,4.30
4674,4.16,4.30
4675,4.16,4.30
4677,4.16,4.28
4678,4.13,4.25
4679,4.11,4.21
4680,4.07,4.17
4681,4.03,4.13
4682,3.99,4.09
4683,3.94,4.05
4684,3.91,4.03
4686,3.89,4.02
4687,3.88,4.01
4688,3.88,4.02
4689,3.88,4.02
4690,3.89,4.03
4691,3.90,4.04
4692,3.91,4.03
4694,3.90,4.01
4696,3.88,3.98
4697,3.85,3.95
4698,3.83,3.92
4699,3.79,3.89
4700,3.76,3.85
4701,3.73,3.83
4702,3.71,3.82
4704,3.70,3.81
4705,3.69,3.80
4706,3.70,3.81
4707,3.70,3.82
4708,3.72,3.83
4709,3.74,3.84
4710,3.74,3.83
4711,3.73,3.81
4713,3.72,3.79
4714,3.70,3.76
4715,3.68,3.74
4716,3.66,3.71
4717,3.63,3.69
4718,3.62,3.69
4719,3.61,3.68
4720,3.61,3.68
4722,3.62,3.69
4723,3.63,3.70
4724,3.65,3.71
4725,3.68,3.73
4726,3.69,3.73
4727,3.70,3.72
4728,3.69,3.70
4729,3.68,3.69
4731,3.66,3.67
4732,3.64,3.65
4733,3.62,3.63
4734,3.61,3.62
4736,3.60,3.62
4737,3.60,3.62
4738,3.61,3.63
4739,3.63,3.64
4741,3.65,3.66
4742,3.67,3.68
4743,3.70,3.69
4744,3.70,3.69
4745,3.70,3.68
4746,3.70,3.67
4747,3.68,3.65
4749,3.67,3.63
4750,3.65,3.62
4751,3.63,3.60
4752,3.62,3.60
4753,3.62,3.60
4754,3.63,3.61
4755,3.64,3.62
4756,3.66,3.64
4758,3.68,3.66
4759,3.70,3.67
4760,3.72,3.68
4761,3.73,3.67
4762,3.72,3.66
4763,3.71,3.65
4764,3.70,3.63
4765,3.68,3.61
4767,3.66,3.60
4768,3.65,3.59
4769,3.64,3.59
4770,3.64,3.60
4771,3.65,3.61
4772,3.67,3.63
4773,3.69,3.64
4775,3.71,3.66
4776,3.73,3.67
4777,3.74,3.67
4779,3.74,3.66
4780,3.73,3.64
4781,3.71,3.63
4782,3.70,3.61
4783,3.68,3.60
4785,3.66,3.59
4786,3.65,3.59
4787,3.65,3.59
4788,3.66,3.60
4789,3.67,3.61
4790,3.69,3.63
4791,3.70,3.65
4792,3.73,3.66
4794,3.74,3.66
4795,3.74,3.64
4796,3.73,3.63
4797,3.71,3.62
4798,3.70,3.61
4799,3.68,3.59
4800,3.66,3.58
4802,3.65,3.57
4803,3.65,3.57
4804,3.65,3.58
4805,3.66,3.59
4806,3.67,3.60
4807,3.69,3.62
4808,3.71,3.64
4809,3.73,3.64
4811,3.73,3.64
4812,3.72,3.62
4813,3.71,3.61
4814,3.70,3.60
4815,3.68,3.58
4816,3.66,3.56
4817,3.65,3.56
4818,3.64,3.56
4820,3.64,3.56
4822,3.64,3.57
4823,3.66,3.59
4824,3.67,3.60
4825,3.70,3.62
4826,3.71,3.63
4827,3.72,3.63
4829,3.72,3.62
4830,3.71,3.60
4831,3.70,3.59
4832,3.68,3.58
4833,3.66,3.56
4834,3.65,3.55
4835,3.64,3.55
4836,3.64,3.55
4838,3.64,3.56
4839,3.65,3.57
4840,3.66,3.58
4841,3.68,3.60
4842,3.70,3.62
4843,3.72,3.62
4844,3.72,3.61
4845,3.71,3.60
4847,3.70,3.59
4848,3.69,3.58
4849,3.67,3.56
4850,3.65,3.55
4851,3.64,3.54
4852,3.63,3.54
4853,3.63,3.55
4854,3.64,3.56
4856,3.65,3.57
4857,3.67,3.59
4858,3.70,3.61
4859,3.71,3.62
4860,3.72,3.61
4861,3.72,3.61
4862,3.71,3.59
4864,3.70,3.58
4866,3.68,3.57
4867,3.66,3.55
4868,3.64,3.54
4869,3.64,3.54
4870,3.63,3.54
4871,3.64,3.55
4872,3.65,3.56
4873,3.66,3.58
4875,3.69,3.60
4876,3.70,3.61
4877,3.72,3.61
4878,3.72,3.61
4879,3.71,3.59
4880,3.70,3.58
4881,3.69,3.57
4882,3.67,3.55
4884,3.65,3.54
4885,3.64,3.53
4886,3.64,3.54
4887,3.64,3.54
4888,3.64,3.55
4889,3.66,3.57
4890,3.67,3.59
4891,3.70,3.60
4893,3.71,3.61
4894,3.72,3.60
4895,3.72,3.60
4896,3.71,3.58
4897,3.70,3.57
4898,3.68,3.56
4899,3.66,3.54
4900,3.64,3.54
4902,3.64,3.54
4903,3.64,3.54
4904,3.64,3.55
4905,3.65,3.56
4907,3.67,3.58
4908,3.69,3.59
4909,3.71,3.60
4910,3.72,3.60
4912,3.72,3.60
4913,3.71,3.59
4914,3.70,3.57
4915,3.69,3.56
4916,3.67,3.55
4917,3.65,3.53
4918,3.64,3.53
4920,3.64,3.54
4921,3.64,3.54
4922,3.64,3.55
4923,3.66,3.57
4924,3.68,3.58
4925,3.70,3.60
4926,3.72,3.60
4927,3.72,3.60
4929,3.72,3.59
4930,3.71,3.58
4931,3.70,3.56
4932,3.68,3.55
4933,3.66,3.54
4934,3.64,3.53
4935,3.64,3.53
4936,3.64,3.53
4938,3.64,3.54
4939,3.65,3.56
4940,3.67,3.57
4941,3.70,3.59
4942,3.71,3.60
4943,3.72,3.60
4944,3.72,3.59
4945,3.71,3.58
4947,3.70,3.57
4948,3.69,3.55
4950,3.67,3.54
4951,3.65,3.53
4952,3.64,3.53
4953,3.64,3.53
4954,3.64,3.54
4955,3.65,3.55
4957,3.66,3.56
4958,3.68,3.58
4959,3.71,3.60
4960,3.72,3.60
4961,3.72,3.59
4962,3.72,3.58
4963,3.70,3.57
4964,3.70,3.56
4966,3.68,3.55
4967,3.66,3.53
4968,3.64,3.53
4969,3.64,3.53
4970,3.64,3.53
4971,3.64,3.54
4972,3.66,3.56
4973,3.68,3.58
4975,3.70,3.59
4976,3.72,3.60
4977,3.72,3.59
4978,3.72,3.59
4979,3.71,3.58
4980,3.70,3.56
4981,3.69,3.55
4982,3.67,3.54
4984,3.65,3.52
4985,3.64,3.52
4986,3.64,3.53
4987,3.64,3.54
4988,3.65,3.55
4989,3.67,3.56
4990,3.69,3.58
4992,3.71,3.59
4994,3.72,3.60
4995,3.72,3.59
4996,3.72,3.58
4997,3.70,3.57
4998,3.69,3.55
4999,3.68,3.54
5000,3.65,3.53
5001,3.64,3.52
5003,3.64,3.52
5004,3.64,3.53
5005,3.64,3.54
5006,3.66,3.55
5007,3.68,3.57
5008,3.70,3.59
5009,3.72,3.59
5010,3.73,3.59
5012,3.72,3.58
5013,3.71,3.57
5014,3.70,3.56
5015,3.68,3.54
5016,3.66,3.53
5017,3.65,3.52
5018,3.64,3.52
5019,3.64,3.52
5021,3.64,3.53
5022,3.65,3.55
5023,3.67,3.56
5024,3.69,3.58
5025,3.71,3.59
5026,3.72,3.59
5027,3.72,3.59
5028,3.71,3.57
5030,3.70,3.56
5031,3.69,3.55
5032,3.67,3.54
5033,3.65,3.52
5035,3.64,3.52
5036,3.64,3.52
5037,3.64,3.53
5039,3.65,3.54
5040,3.66,3.55
5041,3.68,3.57
5042,3.70,3.58
5043,3.72,3.59
5044,3.72,3.59
5045,3.72,3.58
5046,3.71,3.57
5048,3.70,3.56
5049,3.68,3.54
5050,3.66,3.52
5051,3.64,3.52
5052,3.64,3.52
5053,3.64,3.52
5054,3.64,3.53
5055,3.65,3.55
5057,3.67,3.57
5058,3.69,3.58
5059,3.71,3.59
5060,3.72,3.59
5061,3.72,3.58
5062,3.71,3.57
5063,3.70,3.56
5064,3.69,3.54
5066,3.67,3.53
5067,3.65,3.52
5068,3.64,3.52
5069,3.64,3.52
5070,3.64,3.53
5071,3.65,3.54
5072,3.66,3.55
5073,3.69,3.57
5075,3.71,3.59
5076,3.72,3.59
5078,3.73,3.59
5079,3.72,3.58
5080,3.71,3.57
5081,3.70,3.55
5082,3.68,3.54
5084,3.66,3.53
5085,3.64,3.52
5086,3.64,3.52
5087,3.64,3.53
5088,3.65,3.53
5089,3.66,3.55
5090,3.68,3.56
5091,3.70,3.58
5093,3.72,3.59
5094,3.73,3.59
5095,3.72,3.58
5096,3.71,3.57
5097,3.70,3.56
5098,3.69,3.54
5099,3.67,3.53
5100,3.65,3.52
5102,3.64,3.52
5103,3.64,3.52
5104,3.64,3.53
5105,3.65,3.54
5106,3.67,3.56
5107,3.69,3.57
5108,3.71,3.59
5109,3.73,3.59
5111,3.73,3.58
5112,3.72,3.57
5113,3.71,3.56
5114,3.70,3.55
5115,3.68,3.54
5116,3.66,3.52
5117,3.65,3.52
5118,3.64,3.52
5121,3.64,3.52
5122,3.65,3.54
5123,3.66,3.55
5124,3.68,3.56
5125,3.70,3.58
5126,3.72,3.59
5127,3.73,3.59
5128,3.73,3.58
5130,3.72,3.57
5131,3.70,3.56
5132,3.69,3.54
5133,3.67,3.53
5134,3.65,3.52
5135,3.65,3.52
5136,3.65,3.52
5138,3.65,3.53
5139,3.66,3.55
5140,3.68,3.56
5141,3.70,3.58
5142,3.72,3.59
5143,3.73,3.59
5144,3.73,3.58
5145,3.72,3.57
5147,3.71,3.56
5148,3.70,3.55
5149,3.68,3.53
5150,3.66,3.52
5151,3.65,3.52
5152,3.65,3.52
5153,3.65,3.53
5154,3.66,3.54
5156,3.67,3.55
5157,3.69,3.57
5158,3.71,3.58
5159,3.73,3.59
5160,3.73,3.59
5161,3.73,3.58
5163,3.72,3.57
5164,3.70,3.55
5166,3.69,3.54
5167,3.67,3.52
5168,3.65,3.52
5169,3.65,3.52
5170,3.65,3.52
5171,3.65,3.53
5172,3.66,3.54
5173,3.68,3.56
5175,3.70,3.58
5176,3.73,3.59
5177,3.74,3.59
5178,3.73,3.58
5179,3.72,3.57
5180,3.71,3.56
5181,3.70,3.54
5182,3.68,3.53
5184,3.66,3.52
5185,3.65,3.52
5186,3.65,3.52
5187,3.65,3.53
5188,3.66,3.54
5189,3.68,3.55
5190,3.70,3.56
5192,3.72,3.58
5193,3.73,3.59
5194,3.74,3.58
5195,3.73,3.57
5196,3.72,3.56
5197,3.70,3.55
5198,3.69,3.54
5199,3.67,3.52
5201,3.65,3.52
5202,3.65,3.52
5203,3.65,3.52
5204,3.66,3.53
5206,3.67,3.55
5207,3.69,3.56
5208,3.71,3.58
5209,3.73,3.59
5211,3.74,3.59
5212,3.73,3.58
5213,3.72,3.57
5214,3.71,3.55
5215,3.70,3.54
5216,3.68,3.53
5217,3.66,3.52
5218,3.65,3.52
5220,3.65,3.52
5221,3.65,3.53
5222,3.66,3.54
5223,3.68,3.56
5224,3.70,3.57
5225,3.72,3.59
5226,3.74,3.59
5227,3.74,3.58
5229,3.73,3.57
5230,3.72,3.56
5231,3.70,3.55
5232,3.69,3.53
5233,3.67,3.52
5234,3.65,3.51
5235,3.65,3.52
5236,3.65,3.52
5238,3.66,3.53
5239,3.67,3.55
5240,3.69,3.56
5241,3.71,3.58
5242,3.73,3.59
5243,3.74,3.58
5244,3.74,3.58
5245,3.73,3.57
5248,3.71,3.55
5249,3.70,3.54
5250,3.68,3.52
5251,3.66,3.51
5252,3.65,3.52
5253,3.65,3.52
5254,3.66,3.53
5256,3.67,3.54
5257,3.69,3.56
5258,3.70,3.57
5259,3.73,3.59
5260,3.74,3.59
5261,3.74,3.58
5262,3.74,3.57
5263,3.72,3.56
5265,3.70,3.54
5266,3.69,3.53
5267,3.67,3.52
5268,3.66,3.52
5269,3.66,3.52
5270,3.66,3.53
5271,3.67,3.54
5272,3.68,3.55
5274,3.70,3.57
5275,3.73,3.59
5276,3.75,3.59
5277,3.75,3.59
5278,3.75,3.58
5279,3.73,3.57
5280,3.72,3.55
5281,3.70,3.54
5283,3.69,3.53
5284,3.67,3.52
5285,3.66,3.52
5286,3.67,3.52
5287,3.67,3.54
5288,3.68,3.55
5289,3.70,3.57
5291,3.72,3.58
5293,3.75,3.59
5294,3.76,3.59
5295,3.76,3.59
5296,3.75,3.58
5297,3.73,3.56
5298,3.72,3.55
5299,3.70,3.54
5300,3.68,3.53
5302,3.67,3.52
5303,3.67,3.53
5304,3.68,3.53
5305,3.68,3.55
5306,3.70,3.56
5307,3.72,3.58
5308,3.74,3.59
5309,3.77,3.60
5311,3.77,3.59
5312,3.76,3.58
5313,3.75,3.57
5314,3.74,3.56
5315,3.72,3.55
5316,3.70,3.53
5317,3.68,3.52
5318,3.68,3.53
5320,3.68,3.53
5321,3.69,3.54
5322,3.70,3.56
5323,3.72,3.57
5324,3.74,3.59
5325,3.77,3.60
5326,3.78,3.60
5327,3.78,3.59
5329,3.77,3.58
5330,3.75,3.57
5331,3.73,3.56
5332,3.72,3.55
5334,3.70,3.53
5335,3.69,3.53
5336,3.69,3.54
5337,3.69,3.54
5339,3.70,3.55
5340,3.72,3.57
5341,3.74,3.59
5342,3.77,3.60
5343,3.79,3.61
5344,3.79,3.60
5345,3.79,3.59
5346,3.77,3.58
5348,3.76,3.57
5349,3.74,3.55
5350,3.72,3.54
5351,3.70,3.53
5352,3.70,3.54
5353,3.70,3.54
5354,3.70,3.55
5355,3.72,3.57
5357,3.74,3.58
5358,3.76,3.60
5359,3.78,3.61
5360,3.79,3.61
5361,3.79,3.60
5362,3.78,3.59
5363,3.76,3.58
5364,3.75,3.57
5366,3.72,3.55
5367,3.70,3.54
5368,3.70,3.54
5369,3.70,3.54
5370,3.70,3.54
5371,3.70,3.56
5372,3.72,3.57
5373,3.74,3.59
5376,3.77,3.60
5377,3.78,3.60
5378,3.78,3.60
5379,3.77,3.59
5380,3.76,3.57
5381,3.74,3.56
5382,3.72,3.55
5383,3.70,3.53
5385,3.69,3.53
5386,3.68,3.53
5387,3.68,3.53
5388,3.69,3.54
5389,3.70,3.56
5390,3.72,3.57
5391,3.74,3.59
5392,3.76,3.59
5394,3.77,3.59
5395,3.76,3.58
5396,3.75,3.57
5397,3.73,3.55
5398,3.71,3.54
5399,3.70,3.52
5400,3.68,3.51
5401,3.67,3.51
5403,3.67,3.52
5404,3.67,3.53
5405,3.68,3.54
5406,3.70,3.55
5407,3.72,3.57
5408,3.74,3.58
5409,3.75,3.58
5410,3.75,3.57
5412,3.74,3.56
5413,3.73,3.55
5414,3.71,3.53
5415,3.69,3.52
5416,3.67,3.51
5417,3.66,3.51
5419,3.66,3.51
5421,3.66,3.51
5422,3.66,3.53
5423,3.68,3.54
5424,3.70,3.55
5425,3.72,3.57
5426,3.74,3.57
5427,3.74,3.57
5428,3.74,3.56
5430,3.72,3.55
5431,3.71,3.54
5432,3.69,3.52
5433,3.67,3.51
5434,3.66,3.50
5435,3.65,3.50
5436,3.65,3.51
5437,3.65,3.52
5439,3.66,3.53
5440,3.68,3.55
5441,3.71,3.56
5442,3.73,3.57
5443,3.74,3.57
5444,3.74,3.57
5445,3.73,3.56
5446,3.71,3.54
5448,3.70,3.53
5449,3.68,3.52
5450,3.66,3.51
5451,3.65,3.50
5452,3.65,3.50
5453,3.65,3.51
5454,3.66,3.52
5455,3.67,3.54
5457,3.70,3.56
5458,3.72,3.57
5459,3.73,3.57
5460,3.74,3.57
5462,3.73,3.56
5463,3.72,3.55
5464,3.70,3.54
5465,3.69,3.52
5467,3.67,3.51
5468,3.65,3.50
5469,3.65,3.51
5470,3.65,3.51
5471,3.65,3.52
5472,3.66,3.53
5473,3.68,3.55
5474,3.70,3.57
5476,3.72,3.58
5477,3.73,3.57
5478,3.73,3.56
5479,3.72,3.55
5480,3.70,3.54
5481,3.69,3.53
5482,3.67,3.52
5483,3.66,3.51
5485,3.65,3.51
5486,3.64,3.51
5487,3.65,3.51
5488,3.66,3.53
5489,3.67,3.54
5490,3.69,3.56
5491,3.72,3.57
5492,3.73,3.57
5494,3.73,3.57
5495,3.72,3.56
5496,3.71,3.55
5497,3.70,3.54
5498,3.68,3.52
5499,3.66,3.51
5500,3.65,3.51
5501,3.64,3.51
5504,3.64,3.51
5505,3.65,3.52
5506,3.66,3.53
5507,3.68,3.55
5508,3.71,3.57
5509,3.73,3.57
5510,3.73,3.57
5511,3.73,3.56
5513,3.72,3.55
5514,3.70,3.54
5515,3.69,3.53
5516,3.67,3.51
5517,3.65,3.50
5518,3.64,3.51
5519,3.64,3.51
5521,3.65,3.52
5522,3.66,3.53
5523,3.68,3.54
5524,3.70,3.56
5525,3.72,3.57
5526,3.73,3.57
5527,3.73,3.57
5528,3.72,3.56
5530,3.71,3.54
5531,3.70,3.53
5532,3.68,3.52
5533,3.66,3.51
5534,3.65,3.51
5535,3.65,3.51
5536,3.65,3.51
5537,3.66,3.52
5539,3.67,3.54
5540,3.70,3.56
5541,3.72,3.57
5542,3.74,3.58
5543,3.74,3.57
5544,3.73,3.56
5545,3.72,3.55
5547,3.71,3.54
5549,3.69,3.53
5550,3.68,3.51
5551,3.66,3.51
5552,3.65,3.51
5553,3.65,3.51
5554,3.66,3.52
5555,3.67,3.54
5556,3.69,3.55
5558,3.71,3.57
5559,3.73,3.58
5560,3.74,3.58
5561,3.74,3.57
5562,3.73,3.56
5563,3.72,3.55
5564,3.70,3.54
5565,3.69,3.53
5567,3.67,3.52
5568,3.66,3.51
5569,3.65,3.52
5570,3.65,3.52
5571,3.66,3.53
5572,3.68,3.55
5573,3.70,3.57
5574,3.73,3.58
5576,3.74,3.59
5577,3.75,3.58
5578,3.74,3.58
5579,3.73,3.56
5580,3.71,3.55
5581,3.70,3.54
5582,3.68,3.53
5583,3.66,3.52
5585,3.66,3.52
5586,3.66,3.53
5587,3.66,3.54
5588,3.68,3.55
5590,3.70,3.57
5591,3.72,3.59
5592,3.75,3.60
5594,3.76,3.60
5595,3.75,3.60
5596,3.74,3.59
5597,3.73,3.57
5598,3.71,3.56
5599,3.70,3.55
5600,3.68,3.54
5601,3.67,3.54
5603,3.68,3.55
5604,3.69,3.57
5605,3.71,3.58
5606,3.74,3.60
5607,3.77,3.63
5608,3.80,3.65
5609,3.82,3.65
5610,3.82,3.65
5612,3.82,3.64
5613,3.82,3.65
5614,3.83,3.66
5615,3.85,3.67
5616,3.87,3.69
5617,3.90,3.71
5618,3.92,3.73
5619,3.95,3.74
5621,3.98,3.76
5622,4.01,3.79
5623,4.04,3.81
5624,4.06,3.83
5625,4.09,3.85
5626,4.12,3.87
5627,4.14,3.89
5628,4.16,3.91
5630,4.19,3.92
5632,4.21,3.94
5633,4.23,3.96
5634,4.26,3.98
5635,4.28,4.00
5636,4.30,4.01
5637,4.31,4.03
5638,4.33,4.04
5640,4.34,4.06
5641,4.35,4.07
5642,4.37,4.08
5643,4.37,4.10
5644,4.38,4.11
5645,4.39,4.12
5646,4.40,4.13
5648,4.41,4.13
5649,4.41,4.14
5650,4.42,4.15
5651,4.42,4.16
5652,4.43,4.16
5653,4.43,4.17
5654,4.43,4.18
5655,4.43,4.18
5657,4.43,4.19
5658,4.43,4.19
5659,4.43,4.20
5660,4.43,4.20
5661,4.43,4.21
5662,4.42,4.21
5663,4.42,4.22
5664,4.42,4.22
5666,4.41,4.22
5667,4.41,4.23
5668,4.41,4.23
5669,4.41,4.23
5670,4.40,4.24
5671,4.40,4.24
5672,4.40,4.24
5673,4.39,4.24
5676,4.39,4.25
5677,4.38,4.25
5678,4.38,4.25
5679,4.38,4.26
5680,4.37,4.26
5681,4.37,4.26
5682,4.37,4.26
5683,4.36,4.27
5685,4.36,4.27
5686,4.36,4.27
5687,4.35,4.27
5688,4.35,4.28
5689,4.35,4.28
5690,4.35,4.28
5691,4.35,4.29
5693,4.35,4.29
5694,4.34,4.29
5695,4.34,4.29
5696,4.34,4.30
5697,4.34,4.30
5698,4.34,4.30
5699,4.34,4.30
5700,4.34,4.31
5702,4.33,4.31
5703,4.33,4.32
5704,4.33,4.32
5705,4.33,4.32
5706,4.33,4.33
5707,4.33,4.33
5708,4.33,4.33
5710,4.33,4.34
5711,4.32,4.34
5712,4.32,4.34
5713,4.32,4.35
5714,4.32,4.35
5715,4.32,4.35
5716,4.32,4.35
5718,4.32,4.36
5720,4.32,4.36
5721,4.32,4.36
5722,4.32,4.37
5723,4.32,4.37
5724,4.32,4.38
5725,4.32,4.38
5726,4.32,4.38
5727,4.32,4.39
5729,4.32,4.39
5730,4.32,4.40
5731,4.32,4.40
5732,4.32,4.40
5733,4.32,4.41
5734,4.32,4.41
5735,4.32,4.42
5737,4.32,4.42
5738,4.32,4.42
5739,4.32,4.43
5740,4.32,4.43
5741,4.32,4.44
5742,4.32,4.44
5743,4.32,4.45
5744,4.32,4.45
5746,4.32,4.45
5747,4.32,4.46
5748,4.32,4.46
5749,4.32,4.46
5750,4.32,4.47
5751,4.32,4.47
5752,4.32,4.48
5753,4.32,4.49
5755,4.33,4.49
5756,4.32,4.49
5757,4.32,4.50
5758,4.33,4.51
5760,4.33,4.51
5761,4.33,4.51
5762,4.32,4.52
5763,4.33,4.52
5765,4.32,4.53
5766,4.32,4.53
5767,4.32,4.54
5768,4.33,4.54
5769,4.32,4.55
5770,4.32,4.55
5771,4.32,4.56
5773,4.32,4.57
5774,4.32,4.57
5775,4.32,4.57
5776,4.32,4.58
5777,4.32,4.58
5778,4.32,4.58
5779,4.32,4.59
5780,4.32,4.59
5782,4.32,4.60
5783,4.32,4.60
5784,4.32,4.61
5785,4.32,4.61
5786,4.32,4.62
5787,4.32,4.62
5788,4.32,4.63
5789,4.32,4.63
5791,4.32,4.64
5792,4.32,4.64
5793,4.32,4.64
5794,4.32,4.65
5795,4.32,4.65
5796,4.32,4.66
5797,4.32,4.66
5798,4.32,4.67
5800,4.32,4.67
5801,4.32,4.67
5803,4.32,4.68
5804,4.32,4.68
5805,4.32,4.69
5806,4.32,4.69
5807,4.32,4.69
5808,4.32,4.69
5810,4.32,4.70
5811,4.32,4.71
5812,4.32,4.71
5813,4.32,4.71
5814,4.32,4.72
5815,4.32,4.72
5816,4.32,4.72
5818,4.32,4.73
5819,4.32,4.73
5820,4.32,4.74
5821,4.32,4.74
5822,4.32,4.75
5823,4.32,4.75
5824,4.32,4.76
5825,4.32,4.76
5827,4.32,4.77
5828,4.32,4.77
5829,4.32,4.77
5830,4.32,4.77
5831,4.32,4.78
5832,4.32,4.78
5833,4.32,4.78
5835,4.32,4.78
5836,4.32,4.79
5837,4.32,4.79
5838,4.32,4.79
5839,4.32,4.79
5840,4.32,4.80
5841,4.32,4.80
5842,4.32,4.80
5844,4.32,4.80
5846,4.32,4.80
5847,4.31,4.80
5848,4.32,4.80
5849,4.31,4.80
5850,4.32,4.80
5851,4.32,4.80
5852,4.31,4.80
5854,4.31,4.80
5855,4.31,4.81
5856,4.31,4.81
5857,4.31,4.81
5858,4.31,4.81
5859,4.31,4.81
5860,4.31,4.81
5861,4.31,4.81
5863,4.31,4.81
5864,4.31,4.81
5865,4.31,4.80
5866,4.31,4.80
5867,4.31,4.80
5868,4.31,4.80
5869,4.31,4.80
5870,4.31,4.80
5872,4.31,4.80
5873,4.31,4.80
5874,4.31,4.80
5875,4.31,4.80
5876,4.31,4.80
5877,4.31,4.80
5878,4.31,4.79
5879,4.31,4.79
5881,4.31,4.79
5882,4.31,4.79
5883,4.31,4.79
5884,4.31,4.79
5885,4.31,4.78
5886,4.31,4.78
5888,4.31,4.78
5889,4.31,4.78
5891,4.31,4.78
5892,4.31,4.78
5893,4.31,4.78
5894,4.31,4.78
5895,4.31,4.77
5896,4.31,4.77
5897,4.31,4.77
5899,4.31,4.77
5900,4.31,4.76
5901,4.31,4.76
5902,4.31,4.76
5903,4.31,4.75
5904,4.31,4.75
5905,4.31,4.75
5906,4.31,4.75
5908,4.31,4.74
5909,4.31,4.74
5910,4.31,4.74
5911,4.31,4.73
5912,4.31,4.73
5913,4.31,4.73
5914,4.31,4.72
5916,4.31,4.72
5917,4.31,4.72
5918,4.31,4.71
5919,4.31,4.71
5920,4.31,4.71
5921,4.31,4.70
5922,4.31,4.70
5923,4.30,4.70
5925,4.31,4.69
5926,4.30,4.69
5927,4.30,4.69
5928,4.30,4.68
5929,4.30,4.68
5931,4.30,4.68
5932,4.30,4.67
5933,4.30,4.67
5935,4.30,4.67
5936,4.30,4.66
5937,4.30,4.66
5938,4.30,4.66
5939,4.30,4.65
5940,4.30,4.65
5941,4.30,4.65
5942,4.30,4.65
5944,4.30,4.64
5945,4.30,4.64
5946,4.30,4.64
5947,4.30,4.64
5948,4.30,4.63
5949,4.30,4.63
5950,4.30,4.63
5951,4.30,4.62
5953,4.30,4.62
5954,4.30,4.62
5955,4.30,4.61
5956,4.30,4.61
5957,4.30,4.61
5958,4.30,4.61
5959,4.30,4.60
5960,4.30,4.60
5962,4.30,4.60
5963,4.30,4.60
5964,4.30,4.59
5965,4.30,4.59
5966,4.30,4.59
5967,4.30,4.59
5968,4.30,4.58
5969,4.30,4.58
5971,4.30,4.58
5972,4.30,4.58
5974,4.30,4.57
5975,4.30,4.57
5976,4.30,4.57
5977,4.30,4.57
5978,4.30,4.57
5979,4.30,4.56
5981,4.30,4.56
5982,4.30,4.56
5983,4.30,4.55
5984,4.30,4.55
5985,4.30,4.54
5986,4.30,4.54
5987,4.30,4.54
5988,4.30,4.53
5990,4.30,4.53
5991,4.30,4.52
5992,4.30,4.52
5993,4.30,4.51
5994,4.30,4.51
5995,4.30,4.51
5996,4.30,4.50
5997,4.30,4.50
5999,4.30,4.49
6000,4.30,4.49
6001,4.30,4.48
6002,4.30,4.48
6003,4.30,4.47
6004,4.30,4.47
6005,4.30,4.46
6006,4.30,4.46
6008,4.30,4.45
6009,4.30,4.45
6010,4.30,4.44
6011,4.30,4.44
6012,4.30,4.43
6013,4.30,4.43
6014,4.30,4.42
6016,4.30,4.42
6018,4.30,4.41
6019,4.30,4.40
6020,4.30,4.40
6021,4.30,4.39
6022,4.30,4.39
6023,4.30,4.38
6024,4.29,4.37
6025,4.29,4.37
6027,4.29,4.37
6028,4.29,4.36
6029,4.29,4.36
6030,4.29,4.35
6031,4.29,4.35
6032,4.29,4.34
6033,4.29,4.34
6034,4.29,4.34
6036,4.29,4.33
6037,4.29,4.33
6038,4.29,4.32
6039,4.29,4.31
6040,4.29,4.31
6041,4.29,4.30
6042,4.29,4.30
6044,4.29,4.29
6045,4.29,4.29
6046,4.29,4.28
6047,4.29,4.28
6048,4.29,4.28
6049,4.29,4.27
6050,4.29,4.27
6051,4.28,4.26
6053,4.29,4.26
6054,4.28,4.25
6055,4.28,4.25
6056,4.28,4.25
6057,4.28,4.24
6059,4.28,4.24
6060,4.28,4.23
6061,4.28,4.23
6063,4.28,4.23
6064,4.28,4.22
6065,4.28,4.22
6066,4.28,4.21
6067,4.28,4.21
6068,4.28,4.20
6069,4.28,4.20
6070,4.28,4.20
6072,4.29,4.20
6073,4.28,4.19
6074,4.28,4.19
6075,4.28,4.19
6076,4.28,4.18
6077,4.28,4.18
6078,4.28,4.18
6079,4.28,4.17
6081,4.28,4.17
6082,4.28,4.17
6083,4.28,4.16
6084,4.28,4.16
6085,4.28,4.16
6086,4.28,4.15
6087,4.28,4.15
6088,4.29,4.15
6090,4.29,4.15
6091,4.28,4.14
6092,4.28,4.14
6093,4.28,4.14
6094,4.29,4.14
6095,4.29,4.13
6096,4.29,4.13
6097,4.29,4.13
6099,4.29,4.13
6100,4.29,4.13
6102,4.29,4.13
6103,4.29,4.13
6104,4.29,4.12
6105,4.29,4.12
6106,4.29,4.12
6108,4.29,4.12
6109,4.29,4.12
6110,4.29,4.11
6111,4.29,4.11
6112,4.29,4.11
6113,4.29,4.11
6114,4.29,4.11
6116,4.29,4.11
6117,4.29,4.10
6118,4.29,4.10
6119,4.29,4.10
6120,4.29,4.10
6121,4.29,4.10
6122,4.29,4.10
6123,4.29,4.10
6125,4.29,4.10
6126,4.29,4.09
6127,4.29,4.09
6128,4.29,4.09
6129,4.29,4.09
6130,4.29,4.09
6131,4.29,4.09
6132,4.29,4.09
6134,4.29,4.09
6135,4.29,4.09
6136,4.29,4.09
6137,4.29,4.09
6138,4.29,4.09
6139,4.29,4.09
6140,4.29,4.09
6141,4.29,4.08
6144,4.29,4.08
6145,4.29,4.08
6146,4.29,4.08
6147,4.29,4.08
6148,4.29,4.08
6149,4.29,4.08
6150,4.29,4.08
6151,4.30,4.08
6153,4.30,4.08
6154,4.30,4.08
6155,4.30,4.08
6156,4.30,4.08
6157,4.30,4.08
6158,4.30,4.08
6159,4.29,4.08
6160,4.30,4.08
6161,4.30,4.08
6163,4.30,4.08
6164,4.30,4.08
6165,4.30,4.08
6166,4.30,4.08
6167,4.30,4.08
6168,4.30,4.08
6169,4.30,4.08
6170,4.30,4.08
6172,4.30,4.08
6173,4.30,4.08
6174,4.30,4.08
6175,4.30,4.08
6176,4.30,4.08
6177,4.30,4.08
6178,4.30,4.08
6179,4.30,4.08
6180,4.30,4.08
6182,4.30,4.08
6183,4.30,4.08
6184,4.30,4.08
6185,4.30,4.08
6187,4.30,4.08
6188,4.30,4.08
6189,4.30,4.08
6190,4.30,4.08
6192,4.30,4.08
6193,4.30,4.08
6194,4.30,4.08
6195,4.30,4.08
6196,4.30,4.08
6197,4.30,4.08
6198,4.30,4.08
6199,4.30,4.08
6200,4.30,4.08
6202,4.30,4.08
6203,4.30,4.08
6204,4.30,4.08
6205,4.30,4.08
6206,4.30,4.08
6207,4.30,4.08
6208,4.30,4.08
6209,4.30,4.09
6211,4.30,4.09
6212,4.30,4.09
6213,4.30,4.09
6214,4.30,4.09
6215,4.30,4.09
6216,4.30,4.09
6217,4.30,4.09
6218,4.30,4.09
6220,4.30,4.09
6221,4.30,4.09
6222,4.30,4.09
6223,4.30,4.09
6224,4.30,4.09
6225,4.30,4.10
6226,4.30,4.10
6227,4.30,4.10
6228,4.30,4.10
6231,4.30,4.10
6232,4.30,4.10
6233,4.30,4.10
6234,4.30,4.10
6235,4.30,4.10
6236,4.30,4.10
6237,4.30,4.10
6238,4.30,4.10
6240,4.30,4.10
6241,4.30,4.10
6242,4.30,4.10
6243,4.30,4.10
6244,4.30,4.10
6245,4.30,4.10
6246,4.30,4.10
6247,4.30,4.10
6248,4.30,4.10
6250,4.30,4.10
6251,4.30,4.10
6252,4.30,4.10
6253,4.30,4.11
6254,4.30,4.11
6255,4.30,4.11
6256,4.30,4.11
6257,4.30,4.11
6259,4.30,4.11
6260,4.30,4.12
6261,4.30,4.12
6262,4.30,4.12
6263,4.30,4.12
6264,4.30,4.13
6265,4.30,4.13
6266,4.30,4.13
6268,4.30,4.13
6269,4.30,4.13
6270,4.30,4.13
6272,4.30,4.13
6273,4.30,4.14
6274,4.30,4.14
6275,4.30,4.14
6276,4.30,4.15
6278,4.30,4.15
6279,4.30,4.15
6280,4.30,4.15
6281,4.30,4.15
6282,4.30,4.16
6283,4.30,4.16
6284,4.30,4.16
6285,4.30,4.16
6287,4.30,4.17
6288,4.30,4.17
6289,4.30,4.17
6290,4.30,4.18
6291,4.30,4.18
6292,4.30,4.18
6293,4.30,4.19
6294,4.30,4.19
6296,4.30,4.19
6297,4.30,4.19
6298,4.30,4.19
6299,4.30,4.20
6300,4.30,4.20
6301,4.30,4.20
6302,4.30,4.20
6303,4.30,4.21
6305,4.30,4.21
6306,4.30,4.21
6307,4.30,4.22
6308,4.30,4.22
6309,4.30,4.22
6310,4.30,4.22
6311,4.30,4.22
6312,4.30,4.23
6315,4.30,4.23
6316,4.30,4.23
6317,4.30,4.23
6318,4.30,4.24
6319,4.30,4.24
6320,4.30,4.24
6321,4.30,4.25
6322,4.30,4.25
6324,4.30,4.25
6325,4.30,4.26
6326,4.30,4.26
6327,4.30,4.26
6328,4.30,4.26
6329,4.30,4.26
6330,4.30,4.27
6331,4.30,4.27
6333,4.30,4.27
6334,4.30,4.27
6335,4.30,4.27
6336,4.30,4.28
6337,4.30,4.28
6338,4.30,4.28
6339,4.30,4.28
6340,4.30,4.29
6342,4.30,4.29
6343,4.30,4.29
6344,4.30,4.29
6345,4.30,4.30
6346,4.30,4.30
6347,4.30,4.30
6348,4.30,4.30
6349,4.30,4.30
6351,4.29,4.30
6352,4.30,4.31
6353,4.30,4.31
6354,4.30,4.31
6355,4.30,4.31
6356,4.30,4.32
6358,4.30,4.32
6360,4.30,4.32
6361,4.29,4.32
6362,4.29,4.32
6363,4.29,4.32
6364,4.29,4.33
6365,4.29,4.33
6366,4.29,4.33
6367,4.29,4.33
6369,4.29,4.33
6370,4.29,4.33
6371,4.29,4.34
6372,4.29,4.34
6373,4.29,4.34
6374,4.29,4.34
6375,4.29,4.35
6376,4.29,4.35
6378,4.29,4.35
6379,4.29,4.35
6380,4.29,4.35
6381,4.29,4.35
6382,4.29,4.36
6383,4.29,4.36
6384,4.29,4.36
6385,4.30,4.37
6387,4.30,4.37
6388,4.30,4.37
6389,4.30,4.38
6390,4.30,4.38
6391,4.30,4.39
6392,4.30,4.39
6393,4.30,4.39
6394,4.30,4.40
6396,4.29,4.40
6397,4.30,4.40
6398,4.30,4.40
6400,4.30,4.41
6401,4.30,4.41
6402,4.30,4.41
6403,4.30,4.42
6404,4.30,4.42
6406,4.30,4.42
6407,4.30,4.42
6408,4.30,4.43
6409,4.30,4.43
6410,4.30,4.43
6411,4.30,4.44
6412,4.30,4.44
6413,4.30,4.44
6415,4.30,4.44
6416,4.30,4.45
6417,4.30,4.45
6418,4.30,4.45
6419,4.30,4.45
6420,4.30,4.46
6421,4.29,4.46
6422,4.30,4.47
6424,4.30,4.47
6425,4.29,4.47
6426,4.30,4.48
6427,4.29,4.48
6428,4.30,4.48
6429,4.29,4.49
6430,4.29,4.49
6431,4.29,4.49
6433,4.29,4.49
6434,4.30,4.50
6435,4.30,4.50
6436,4.29,4.50
6437,4.29,4.51
6438,4.29,4.51
6439,4.29,4.52
6440,4.29,4.52
6443,4.30,4.53
6444,4.29,4.53
6445,4.29,4.53
6446,4.29,4.54
6447,4.29,4.54
6448,4.29,4.54
6449,4.29,4.55
6451,4.29,4.55
6452,4.30,4.56
6453,4.30,4.56
6454,4.30,4.57
6455,4.29,4.57
6456,4.30,4.57
6457,4.30,4.58
6458,4.30,4.58
6460,4.30,4.59
6461,4.30,4.59
6462,4.29,4.59
6463,4.30,4.60
6464,4.30,4.60
6465,4.29,4.60
6466,4.29,4.61
6467,4.30,4.61
6469,4.30,4.61
6470,4.29,4.62
6471,4.29,4.62
6472,4.29,4.63
6473,4.29,4.63
6474,4.29,4.63
6475,4.29,4.64
6476,4.29,4.64
6478,4.29,4.64
6479,4.29,4.64
6480,4.29,4.65
6481,4.29,4.65
6482,4.29,4.65
6483,4.29,4.65
6484,4.29,4.65
6486,4.29,4.65
6488,4.29,4.65
6489,4.29,4.65
6490,4.29,4.65
6491,4.29,4.65
6492,4.29,4.65
6493,4.29,4.65
6494,4.29,4.65
6495,4.29,4.65
6497,4.29,4.65
6498,4.28,4.64
6499,4.28,4.64
6500,4.28,4.64
6501,4.28,4.64
6502,4.28,4.64
6503,4.29,4.63
6504,4.29,4.63
6506,4.28,4.63
6507,4.29,4.63
6508,4.29,4.62
6509,4.29,4.62
6510,4.29,4.62
6511,4.28,4.61
6512,4.29,4.61
6513,4.29,4.61
6515,4.29,4.60
6516,4.29,4.60
6517,4.29,4.59
6518,4.29,4.59
6519,4.29,4.58
6520,4.29,4.58
6521,4.29,4.57
6522,4.28,4.57
6524,4.28,4.57
6525,4.28,4.56
6526,4.28,4.56
6528,4.28,4.55
6529,4.28,4.55
6530,4.28,4.54
6531,4.28,4.54
6532,4.28,4.53
6534,4.28,4.53
6535,4.28,4.52
6536,4.28,4.52
6537,4.28,4.51
6538,4.28,4.51
6539,4.27,4.50
6540,4.28,4.50
6541,4.27,4.49
6543,4.27,4.49
6544,4.27,4.48
6545,4.27,4.48
6546,4.27,4.48
6547,4.27,4.47
6548,4.27,4.47
6549,4.27,4.46
6551,4.27,4.46
6552,4.27,4.46
6553,4.27,4.46
6554,4.27,4.45
6555,4.27,4.45
6556,4.27,4.45
6557,4.27,4.45
6558,4.27,4.44
6560,4.26,4.44
6561,4.27,4.44
6562,4.27,4.44
6563,4.27,4.43
6564,4.26,4.43
6565,4.26,4.43
6566,4.26,4.43
6567,4.26,4.43
6569,4.26,4.43
6571,4.26,4.42
6572,4.26,4.42
6573,4.26,4.42
6574,4.26,4.42
6575,4.26,4.42
6576,4.26,4.42
6577,4.26,4.42
6579,4.26,4.42
6580,4.27,4.41
6581,4.27,4.41
6582,4.27,4.41
6583,4.27,4.41
6584,4.27,4.41
6585,4.27,4.41
6586,4.27,4.41
6588,4.27,4.41
6589,4.27,4.41
6590,4.27,4.41
6591,4.27,4.41
6592,4.27,4.41
6593,4.27,4.40
6594,4.27,4.40
6596,4.27,4.40
6597,4.27,4.40
6598,4.27,4.40
6599,4.27,4.40
6600,4.27,4.40
6601,4.27,4.40
6602,4.28,4.40
6603,4.27,4.40
6605,4.27,4.40
6606,4.27,4.40
6607,4.28,4.40
6608,4.27,4.40
6609,4.27,4.40
6610,4.28,4.40
6611,4.27,4.40
6612,4.28,4.40
6615,4.27,4.40
6616,4.28,4.40
6617,4.28,4.40
6618,4.28,4.40
6619,4.28,4.40
6620,4.28,4.40
6621,4.28,4.40
6622,4.28,4.40
6624,4.28,4.40
6625,4.28,4.40
6626,4.28,4.40
6627,4.28,4.40
6628,4.28,4.40
6629,4.28,4.40
6630,4.28,4.40
6631,4.28,4.40
6632,4.28,4.40
6634,4.28,4.40
6635,4.28,4.40
6636,4.28,4.40
6637,4.28,4.40
6638,4.28,4.40
6639,4.29,4.40
6640,4.29,4.40
6641,4.28,4.40
6643,4.28,4.40
6644,4.28,4.40
6645,4.28,4.40
6646,4.28,4.40
6647,4.28,4.40
6648,4.28,4.40
6649,4.28,4.40
6650,4.28,4.40
6652,4.29,4.40
6653,4.29,4.40
6654,4.29,4.40
6656,4.29,4.40
6657,4.28,4.40
6658,4.28,4.40
6659,4.28,4.40
6660,4.28,4.40
6662,4.28,4.40
6663,4.28,4.40
6664,4.28,4.39
6665,4.26,4.35
6666,4.23,4.33
6667,4.20,4.31
6668,4.19,4.30
6669,4.18,4.30
6671,4.17,4.30
6672,4.17,4.30
6673,4.17,4.30
6674,4.17,4.30
6675,4.17,4.28
6676,4.15,4.25
6677,4.12,4.21
6678,4.08,4.17
6680,4.04,4.13
6681,4.00,4.09
6682,3.95,4.05
6683,3.91,4.02
6684,3.89,4.00
6685,3.87,3.98
6686,3.85,3.97
6687,3.85,3.97
6689,3.85,3.97
6690,3.85,3.98
6691,3.86,3.97
6692,3.85,3.95
6693,3.83,3.93
6694,3.80,3.90
6695,3.77,3.87
6696,3.74,3.84
6699,3.71,3.80
6700,3.68,3.77
6701,3.66,3.76
6702,3.65,3.75
6703,3.64,3.75
6704,3.65,3.75
6705,3.66,3.76
6706,3.67,3.77
6708,3.69,3.78
6709,3.70,3.78
6710,3.70,3.76
6711,3.69,3.74
6712,3.67,3.72
6713,3.65,3.70
6714,3.63,3.68
6715,3.60,3.66
6717,3.59,3.65
6718,3.58,3.64
6719,3.58,3.64
6720,3.59,3.65
6721,3.61,3.67
6722,3.63,3.68
6723,3.65,3.70
6724,3.67,3.70
6726,3.68,3.70
6727,3.68,3.69
6728,3.67,3.67
6729,3.65,3.65
6730,3.64,3.64
6731,3.62,3.61
6732,3.60,3.60
6733,3.60,3.60
6735,3.60,3.60
6736,3.60,3.61
6737,3.61,3.62
6738,3.63,3.64
6739,3.66,3.66
6740,3.68,3.67
6742,3.70,3.67
6744,3.70,3.66
6745,3.69,3.65
6746,3.68,3.64
6747,3.66,3.62
6748,3.65,3.60
6749,3.63,3.59
6750,3.62,3.59
6751,3.62,3.58
6753,3.62,3.59
6754,3.62,3.60
6755,3.64,3.61
6756,3.66,3.63
6757,3.69,3.65
6758,3.70,3.65
6759,3.71,3.65
6760,3.70,3.64
6762,3.70,3.63
6763,3.68,3.61
6764,3.67,3.59
6765,3.65,3.58
6766,3.63,3.57
6767,3.63,3.57
6768,3.63,3.57
6769,3.63,3.58
6771,3.64,3.60
6772,3.66,3.61
6773,3.68,3.63
6774,3.70,3.64
6775,3.71,3.64
6776,3.71,3.63
6777,3.70,3.62
6779,3.70,3.60
6780,3.68,3.59
6781,3.66,3.57
6782,3.64,3.56
6784,3.63,3.56
6785,3.63,3.56
6786,3.63,3.57
6787,3.64,3.58
6789,3.66,3.59
6790,3.68,3.61
6791,3.70,3.63
6792,3.71,3.63
6793,3.72,3.63
6794,3.71,3.61
6795,3.70,3.61
6796,3.69,3.59
6798,3.67,3.57
6799,3.65,3.56
6800,3.64,3.55
6801,3.63,3.55
6802,3.63,3.56
6803,3.64,3.57
6804,3.65,3.58
6805,3.67,3.60
6807,3.69,3.62
6808,3.71,3.63
6809,3.72,3.62
6810,3.72,3.62
6811,3.71,3.60
6812,3.70,3.59
6813,3.68,3.58
6814,3.66,3.56
6816,3.64,3.55
6817,3.64,3.55
6818,3.63,3.55
6819,3.64,3.56
6820,3.64,3.57
6821,3.66,3.59
6822,3.68,3.61
6823,3.70,3.62
6825,3.72,3.62
6827,3.72,3.62
6828,3.71,3.60
6829,3.70,3.59
6830,3.69,3.58
6831,3.67,3.56
6832,3.65,3.55
6834,3.64,3.55
6835,3.64,3.55
6836,3.64,3.55
6837,3.64,3.56
6838,3.66,3.58
6839,3.68,3.59
6840,3.70,3.61
6841,3.71,3.62
6843,3.72,3.61
6844,3.72,3.60
6845,3.71,3.59
6846,3.70,3.58
6847,3.68,3.57
6848,3.66,3.55
6849,3.64,3.54
6850,3.64,3.54
6852,3.64,3.55
6853,3.64,3.55
6854,3.65,3.57
6855,3.67,3.58
6856,3.69,3.60
6857,3.71,3.61
6858,3.72,3.61
6859,3.72,3.61
6861,3.71,3.60
6862,3.70,3.58
6863,3.69,3.57
6864,3.67,3.55
6865,3.65,3.54
6866,3.64,3.54
6867,3.64,3.54
6868,3.64,3.55
6871,3.64,3.56
6872,3.66,3.57
6873,3.68,3.59
6874,3.70,3.60
6875,3.72,3.61
6876,3.72,3.61
6877,3.72,3.59
6878,3.71,3.59
6880,3.70,3.57
6881,3.68,3.56
6882,3.66,3.54
6883,3.64,3.53
6884,3.64,3.54
6885,3.64,3.54
6886,3.64,3.55
6887,3.65,3.56
6889,3.67,3.58
6890,3.69,3.59
6891,3.71,3.61
6892,3.72,3.61
6893,3.72,3.60
6894,3.71,3.59
6895,3.70,3.58
6896,3.69,3.56
6898,3.67,3.55
6899,3.65,3.53
6900,3.64,3.53
6901,3.64,3.54
6902,3.64,3.54
6903,3.65,3.55
6904,3.66,3.57
6905,3.69,3.59
6907,3.70,3.60
6908,3.72,3.60
6909,3.73,3.60
6910,3.72,3.59
6912,3.71,3.58
6913,3.70,3.56
6914,3.68,3.55
6915,3.66,3.54
6917,3.64,3.53
6918,3.64,3.53
6919,3.64,3.53
6920,3.64,3.54
6921,3.66,3.56
6922,3.68,3.58
6923,3.70,3.59
6924,3.72,3.60
6926,3.73,3.60
6927,3.72,3.59
6928,3.72,3.58
6929,3.70,3.57
6930,3.69,3.55
6931,3.67,3.54
6932,3.65,3.53
6933,3.64,3.53
6935,3.64,3.53
6936,3.64,3.54
6937,3.65,3.55
6938,3.67,3.57
6939,3.69,3.58
6940,3.71,3.59
6941,3.72,3.60
6942,3.73,3.59
6944,3.72,3.58
6945,3.71,3.57
6946,3.70,3.56
6947,3.68,3.54
6948,3.66,3.53
6949,3.64,3.53
6950,3.64,3.53
6951,3.64,3.53
6953,3.65,3.54
6955,3.66,3.56
6956,3.68,3.57
6957,3.70,3.59
6958,3.72,3.60
6959,3.73,3.59
6960,3.72,3.59
6962,3.71,3.58
6963,3.70,3.56
6964,3.69,3.55
6965,3.67,3.53
6966,3.65,3.53
6967,3.64,3.53
6968,3.64,3.53
6969,3.64,3.53
6971,3.65,3.55
6972,3.67,3.56
6973,3.69,3.58
6974,3.71,3.59
6975,3.73,3.59
6976,3.73,3.59
6977,3.72,3.58
6978,3.70,3.57
6980,3.69,3.55
6981,3.68,3.54
6982,3.66,3.53
6983,3.64,3.52
6984,3.64,3.52
6985,3.64,3.53
6986,3.65,3.54
6987,3.66,3.55
6989,3.68,3.57
6990,3.70,3.59
6991,3.72,3.59
6992,3.73,3.59
6993,3.72,3.58
6994,3.71,3.57
6995,3.70,3.56
6996,3.68,3.54
6999,3.66,3.53
7000,3.65,3.52
7001,3.64,3.52
7002,3.64,3.52
7003,3.64,3.53
7004,3.65,3.54
7005,3.67,3.56
7006,3.70,3.58
7008,3.71,3.59
7009,3.73,3.59
7010,3.72,3.58
7011,3.72,3.57
7012,3.70,3.56
7013,3.69,3.55
7014,3.67,3.53
7015,3.65,3.52
7017,3.64,3.52
7018,3.64,3.52
7019,3.64,3.53
7020,3.65,3.54
7021,3.66,3.55
7022,3.68,3.57
7023,3.70,3.59
7024,3.72,3.59
7026,3.73,3.58
7027,3.72,3.58
7028,3.71,3.56
7029,3.70,3.55
7030,3.68,3.54
7031,3.66,3.52
7032,3.64,3.52
7034,3.64,3.52
7035,3.64,3.52
7036,3.64,3.53
7037,3.66,3.54
7038,3.67,3.56
7040,3.70,3.58
7041,3.72,3.59
7042,3.73,3.59
7044,3.72,3.58
7045,3.71,3.57
7046,3.70,3.56
7047,3.69,3.54
7048,3.67,3.53
7049,3.65,3.52
7050,3.64,3.52
7051,3.64,3.52
7053,3.64,3.52
7054,3.65,3.54
7055,3.67,3.55
7056,3.69,3.57
7057,3.71,3.59
7058,3.73,3.59
7059,3.73,3.58
7060,3.72,3.57
7062,3.71,3.56
7063,3.70,3.55
7064,3.68,3.54
7065,3.66,3.52
7066,3.64,3.52
7067,3.64,3.52
7068,3.64,3.52
7069,3.65,3.53
7071,3.66,3.55
7072,3.68,3.56
7073,3.70,3.58
7074,3.72,3.59
7075,3.73,3.59
7076,3.73,3.58
7077,3.71,3.57
7078,3.70,3.55
7080,3.69,3.54
7081,3.67,3.53
7083,3.65,3.51
7084,3.64,3.52
7085,3.64,3.52
7086,3.65,3.53
7087,3.65,3.54
7088,3.67,3.56
7090,3.69,3.57
7091,3.71,3.59
7092,3.73,3.59
7093,3.73,3.58
7094,3.72,3.58
7095,3.71,3.56
7096,3.70,3.55
7098,3.68,3.53
7099,3.66,3.52
7100,3.65,3.52
7101,3.64,3.52
7102,3.65,3.53
7103,3.65,3.54
7104,3.67,3.55
7105,3.69,3.56
7107,3.70,3.58
7108,3.73,3.59
7109,3.73,3.59
7110,3.73,3.58
7111,3.72,3.57
7112,3.70,3.55
7113,3.69,3.54
7114,3.67,3.53
7116,3.65,3.52
7117,3.65,3.52
7118,3.65,3.52
7119,3.65,3.53
7120,3.66,3.54
7121,3.68,3.56
7122,3.70,3.58
7123,3.72,3.59
7126,3.73,3.59
7127,3.73,3.58
7128,3.72,3.57
7129,3.71,3.56
7130,3.70,3.55
7131,3.68,3.54
7132,3.66,3.52
7133,3.65,3.52
7135,3.65,3.52
7136,3.65,3.53
7137,3.66,3.54
7138,3.67,3.55
7139,3.70,3.58
7140,3.72,3.59
7141,3.74,3.59
7142,3.74,3.59
7144,3.73,3.58
7145,3.72,3.57
7146,3.71,3.56
7147,3.69,3.54
7148,3.68,3.53
7149,3.66,3.52
7150,3.65,3.52
7152,3.66,3.53
7153,3.66,3.54
7154,3.68,3.55
7155,3.70,3.57
7156,3.72,3.58
7157,3.74,3.60
7158,3.75,3.60
7159,3.75,3.59
7161,3.75,3.58
7162,3.73,3.57
7163,3.71,3.56
7164,3.70,3.55
7165,3.68,3.53
7166,3.67,3.53
7168,3.67,3.54
7169,3.68,3.54
7171,3.69,3.56
7172,3.70,3.57
7173,3.73,3.59
7174,3.75,3.61
7175,3.78,3.61
7176,3.78,3.61
7177,3.78,3.60
7178,3.77,3.59
7180,3.75,3.57
7181,3.73,3.56
7182,3.71,3.55
7183,3.70,3.54
7184,3.69,3.55
7185,3.70,3.56
7186,3.72,3.57
7187,3.74,3.59
7189,3.77,3.60
7190,3.80,3.62
7191,3.82,3.64
7192,3.84,3.64
7193,3.84,3.63
7194,3.83,3.62
7195,3.81,3.61
7197,3.80,3.59
7198,3.78,3.58
7199,3.75,3.57
7200,3.74,3.56
7201,3.74,3.57
7202,3.75,3.58
7203,3.77,3.60
7204,3.80,3.61
7206,3.82,3.63
7207,3.85,3.65
7208,3.87,3.65
7209,3.87,3.65
7211,3.87,3.64
7212,3.85,3.63
7213,3.83,3.61
7214,3.81,3.60
7216,3.79,3.58
7217,3.76,3.58
7218,3.75,3.58
7219,3.76,3.59
7220,3.78,3.60
7221,3.80,3.62
7222,3.82,3.63
7223,3.85,3.65
7225,3.87,3.66
7226,3.88,3.66
7227,3.88,3.65
7228,3.86,3.64
7229,3.85,3.62
7230,3.82,3.61
7231,3.80,3.59
7232,3.78,3.58
7234,3.76,3.58
7235,3.76,3.58
7236,3.77,3.59
7237,3.79,3.61
7238,3.81,3.63
7239,3.84,3.64
7240,3.86,3.66
7241,3.88,3.66
7243,3.88,3.65
7244,3.87,3.64
7245,3.85,3.63
7246,3.83,3.62
7247,3.81,3.60
7248,3.78,3.58
7249,3.76,3.57
7251,3.75,3.58
7252,3.76,3.59
7254,3.77,3.60
7255,3.80,3.62
7256,3.82,3.63
7257,3.85,3.65
7258,3.87,3.66
7259,3.88,3.66
7261,3.87,3.65
7262,3.85,3.63
7263,3.83,3.62
7264,3.81,3.60
7265,3.79,3.59
7266,3.76,3.57
7267,3.75,3.57
7268,3.75,3.58
7270,3.76,3.59
7271,3.79,3.61
7272,3.81,3.63
7273,3.84,3.64
7274,3.86,3.66
7275,3.87,3.66
7276,3.87,3.65
7277,3.86,3.64
7279,3.84,3.62
7280,3.82,3.61
7281,3.79,3.59
7282,3.77,3.57
7283,3.75,3.57
7284,3.75,3.57
7285,3.76,3.59
7287,3.78,3.60
7288,3.80,3.62
7289,3.82,3.63
7290,3.85,3.65
7291,3.87,3.66
7292,3.87,3.65
7293,3.87,3.64
7294,3.85,3.62
7297,3.83,3.61
7298,3.80,3.60
7299,3.78,3.58
7300,3.76,3.57
7301,3.75,3.57
7302,3.75,3.58
7303,3.77,3.59
7304,3.79,3.61
7306,3.82,3.63
7307,3.84,3.64
7308,3.87,3.65
7309,3.88,3.65
7310,3.87,3.64
7311,3.86,3.63
7312,3.84,3.61
7313,3.82,3.60
7315,3.79,3.58
7316,3.77,3.57
7317,3.75,3.57
7318,3.75,3.57
7319,3.76,3.58
7320,3.78,3.60
7321,3.81,3.62
7322,3.83,3.63
7324,3.86,3.65
7325,3.88,3.65
7326,3.88,3.64
7327,3.87,3.63
7328,3.85,3.62
7329,3.83,3.60
7330,3.81,3.59
7331,3.78,3.57
7333,3.76,3.57
7334,3.75,3.57
7335,3.76,3.58
7336,3.78,3.59
7337,3.80,3.61
7339,3.83,3.62
7340,3.85,3.64
7342,3.88,3.65
7343,3.88,3.64
7344,3.87,3.63
7345,3.86,3.62
7346,3.84,3.61
7347,3.81,3.59
7348,3.79,3.58
7349,3.77,3.57
7351,3.75,3.56
7352,3.76,3.57
7353,3.76,3.58
7354,3.77,3.59
7355,3.79,3.61
7356,3.81,3.62
7357,3.84,3.63
7358,3.85,3.63
7360,3.84,3.62
7361,3.83,3.61
7362,3.81,3.60
7363,3.79,3.58
7364,3.77,3.57
7365,3.74,3.56
7366,3.72,3.55
7367,3.72,3.55
7369,3.72,3.55
7370,3.73,3.57
7371,3.74,3.58
7372,3.76,3.60
7373,3.79,3.61
7374,3.80,3.61
7375,3.80,3.60
7376,3.79,3.59
7378,3.77,3.57
7379,3.75,3.56
7380,3.73,3.55
7382,3.71,3.53
7383,3.69,3.52
7384,3.69,3.53
7385,3.69,3.53
7386,3.69,3.54
7388,3.70,3.55
7389,3.71,3.57
7390,3.74,3.58
7391,3.76,3.59
7392,3.76,3.58
7393,3.76,3.58
7394,3.74,3.56
7395,3.73,3.55
7397,3.71,3.54
7398,3.69,3.52
7399,3.67,3.51
7400,3.66,3.51
7401,3.66,3.52
7402,3.66,3.52
7403,3.67,3.53
7404,3.69,3.55
7406,3.71,3.57
7407,3.73,3.58
7408,3.74,3.58
7409,3.74,3.57
7410,3.74,3.56
7411,3.72,3.55
7412,3.70,3.54
7414,3.69,3.52
7415,3.67,3.51
7416,3.66,3.51
7417,3.65,3.51
7418,3.65,3.51
7419,3.66,3.52
7420,3.67,3.54
7421,3.70,3.55
7424,3.72,3.57
7425,3.74,3.58
7426,3.74,3.57
7427,3.74,3.56
7428,3.72,3.55
7429,3.71,3.54
7430,3.70,3.52
7431,3.68,3.51
7433,3.66,3.50
7434,3.65,3.50
7435,3.65,3.51
7436,3.65,3.52
7437,3.67,3.53
7438,3.68,3.55
7439,3.70,3.56
7440,3.73,3.57
7442,3.74,3.57
7443,3.74,3.57
7444,3.73,3.56
7445,3.71,3.54
7446,3.70,3.53
7447,3.68,3.52
7448,3.66,3.51
7449,3.65,3.51
7451,3.65,3.51
7452,3.65,3.51
7453,3.66,3.52
7454,3.67,3.55
7455,3.70,3.56
7456,3.71,3.57
7457,3.73,3.58
7458,3.74,3.57
7460,3.73,3.56
7461,3.72,3.55
7462,3.70,3.54
7463,3.69,3.53
7464,3.67,3.52
7465,3.65,3.51
7467,3.65,3.51
7468,3.65,3.51
7470,3.65,3.52
7471,3.66,3.54
7472,3.68,3.55
7473,3.70,3.57
7474,3.73,3.58
7475,3.73,3.57
7476,3.73,3.57
7477,3.72,3.56
7479,3.71,3.55
7480,3.70,3.53
7481,3.68,3.52
7482,3.66,3.51
7483,3.65,3.51
7484,3.65,3.51
7485,3.65,3.52
7487,3.66,3.53
7488,3.67,3.54
7489,3.70,3.56
7490,3.72,3.58
7491,3.73,3.58
7492,3.73,3.57
7493,3.73,3.56
7494,3.71,3.55
7496,3.70,3.54
7497,3.68,3.53
7498,3.66,3.51
7499,3.65,3.51
7500,3.65,3.51
7501,3.65,3.51
7502,3.66,3.53
7503,3.67,3.54
7505,3.69,3.55
7506,3.71,3.57
7507,3.73,3.57
7508,3.73,3.56
7510,3.72,3.55
7511,3.71,3.54
7512,3.70,3.53
7513,3.68,3.52
7515,3.66,3.50
7516,3.64,3.49
7517,3.63,3.49
7518,3.63,3.50
7519,3.63,3.51
7520,3.65,3.52
7521,3.67,3.53
7523,3.70,3.55
7524,3.71,3.56
7525,3.72,3.56
7526,3.72,3.55
7527,3.71,3.54
7528,3.70,3.52
7529,3.68,3.51
7530,3.66,3.50
7532,3.64,3.49
7533,3.63,3.49
7534,3.63,3.49
7535,3.63,3.50
7536,3.64,3.51
7537,3.66,3.52
7538,3.68,3.54
7539,3.71,3.56
7541,3.72,3.56
7542,3.73,3.56
7543,3.72,3.55
7544,3.71,3.53
7545,3.70,3.53
7546,3.68,3.51
7547,3.66,3.50
7548,3.64,3.50
7550,3.64,3.50
7552,3.64,3.50
7553,3.65,3.51
7554,3.66,3.52
7555,3.68,3.54
7556,3.70,3.56
7557,3.73,3.57
7558,3.74,3.57
7560,3.73,3.56
7561,3.72,3.55
7562,3.71,3.54
7563,3.70,3.53
7564,3.68,3.52
7565,3.66,3.51
7566,3.65,3.51
7567,3.65,3.51
7569,3.65,3.52
7570,3.66,3.53
7571,3.68,3.54
7572,3.70,3.56
7573,3.73,3.58
7574,3.74,3.58
7575,3.75,3.58
7576,3.74,3.57
7578,3.73,3.56
7579,3.71,3.55
7580,3.70,3.53
7581,3.68,3.52
7582,3.66,3.52
7583,3.66,3.52
7584,3.67,3.53
7585,3.68,3.55
7587,3.70,3.56
7588,3.73,3.59
7589,3.76,3.61
7590,3.79,3.62
7591,3.80,3.62
7592,3.80,3.62
7593,3.79,3.61
7596,3.77,3.60
7597,3.75,3.58
7598,3.74,3.57
7599,3.71,3.56
7600,3.71,3.56
7601,3.71,3.57
7602,3.73,3.58
7603,3.75,3.60
7605,3.78,3.62
7606,3.80,3.64
7607,3.83,3.66
7608,3.87,3.68
7609,3.90,3.70
7610,3.92,3.72
7611,3.95,3.74
7612,3.98,3.76
7614,4.02,3.79
7615,4.05,3.81
7616,4.08,3.83
7617,4.11,3.85
7618,4.13,3.87
7619,4.16,3.90
7620,4.18,3.91
7621,4.21,3.93
7623,4.23,3.95
7624,4.25,3.97
7625,4.27,3.99
7626,4.30,4.00
7627,4.32,4.02
7628,4.33,4.04
7629,4.35,4.05
7630,4.36,4.07
7632,4.38,4.08
7633,4.39,4.10
7634,4.40,4.11
7635,4.41,4.12
7636,4.42,4.13
7638,4.43,4.13
7639,4.43,4.14
7640,4.44,4.15
7642,4.44,4.16
7643,4.44,4.17
7644,4.45,4.18
7645,4.45,4.18
7646,4.45,4.19
7647,4.45,4.19
7648,4.45,4.20
7649,4.45,4.20
7651,4.45,4.21
7652,4.44,4.21
7653,4.44,4.21
7654,4.44,4.22
7655,4.43,4.22
7656,4.43,4.23
7657,4.43,4.23
7659,4.42,4.23
7660,4.42,4.24
7661,4.42,4.24
7662,4.41,4.24
7663,4.41,4.24
7664,4.40,4.25
7665,4.40,4.25
7666,4.39,4.25
7668,4.39,4.25
7669,4.39,4.25
7670,4.38,4.26
7671,4.38,4.26
7672,4.38,4.26
7673,4.37,4.27
7674,4.37,4.27
7675,4.37,4.27
7677,4.36,4.27
7678,4.36,4.27
7680,4.36,4.28
7681,4.35,4.28
7682,4.35,4.28
7683,4.35,4.28
7684,4.35,4.28
7686,4.35,4.29
7687,4.35,4.29
7688,4.35,4.30
7689,4.34,4.30
7690,4.34,4.30
7691,4.34,4.30
7692,4.34,4.30
7693,4.34,4.31
7695,4.34,4.31
7696,4.34,4.32
7697,4.33,4.32
7698,4.33,4.32
7699,4.33,4.33
7700,4.33,4.33
7701,4.33,4.33
7703,4.33,4.34
7704,4.33,4.34
7705,4.33,4.34
7706,4.33,4.35
7707,4.33,4.35
7708,4.33,4.35
7709,4.33,4.35
7710,4.33,4.36
7712,4.33,4.36
7713,4.33,4.36
7714,4.33,4.37
7715,4.33,4.37
7716,4.33,4.37
7717,4.33,4.38
7718,4.33,4.38
7720,4.33,4.38
7721,4.33,4.39
7723,4.33,4.39
7724,4.33,4.40
7725,4.33,4.40
7726,4.33,4.40
7727,4.33,4.40
7728,4.33,4.41
7730,4.33,4.41
7731,4.33,4.41
7732,4.33,4.42
7733,4.33,4.42
7734,4.33,4.42
7735,4.33,4.42
7736,4.33,4.43
7737,4.33,4.43
7739,4.33,4.44
7740,4.33,4.44
7741,4.33,4.45
7742,4.33,4.45
7743,4.33,4.45
7744,4.33,4.45
7745,4.33,4.46
7747,4.33,4.46
7748,4.33,4.46
7749,4.33,4.46
7750,4.33,4.47
7751,4.33,4.47
7752,4.32,4.47
7753,4.32,4.48
7754,4.33,4.48
7756,4.33,4.48
7757,4.32,4.49
7758,4.32,4.49
7759,4.32,4.49
7760,4.32,4.49
7761,4.32,4.49
7762,4.32,4.50
7764,4.32,4.50
7766,4.32,4.50
7767,4.32,4.50
7768,4.32,4.50
7769,4.32,4.51
7770,4.32,4.51
7771,4.32,4.51
7772,4.32,4.51
7774,4.32,4.52
7775,4.32,4.52
7776,4.32,4.52
7777,4.32,4.52
7778,4.32,4.53
7779,4.32,4.53
7780,4.32,4.53
7781,4.32,4.53
7783,4.32,4.53
7784,4.32,4.53
7785,4.32,4.53
7786,4.32,4.54
7787,4.32,4.54
7788,4.32,4.54
7789,4.32,4.54
7791,4.32,4.54
7792,4.32,4.54
7793,4.32,4.55
7794,4.32,4.55
7795,4.32,4.55
7796,4.32,4.55
7797,4.32,4.55
7799,4.32,4.55
7800,4.32,4.55
7801,4.32,4.56
7802,4.32,4.56
7803,4.32,4.56
7804,4.32,4.56
7805,4.31,4.56
7806,4.32,4.56
7809,4.32,4.57
7810,4.31,4.57
7811,4.31,4.57
7812,4.31,4.57
7813,4.31,4.57
7814,4.31,4.57
7815,4.31,4.57
7817,4.32,4.57
7818,4.32,4.57
7819,4.32,4.57
7820,4.32,4.58
7821,4.32,4.58
7822,4.32,4.58
7823,4.32,4.59
7824,4.32,4.59
7826,4.32,4.59
7827,4.32,4.59
7828,4.31,4.60
7829,4.31,4.60
7830,4.31,4.60
7831,4.31,4.60
7832,4.32,4.60
7833,4.31,4.60
7835,4.32,4.60
7836,4.31,4.61
7837,4.31,4.60
7838,4.31,4.60
7839,4.31,4.61
7840,4.31,4.61
7841,4.31,4.60
7842,4.31,4.60
7844,4.31,4.60
7845,4.31,4.60
7846,4.31,4.60
7847,4.31,4.60
7848,4.31,4.60
7849,4.31,4.60
7851,4.31,4.60
7852,4.31,4.60
7854,4.31,4.60
7855,4.31,4.61
7856,4.31,4.61
7857,4.31,4.61
7858,4.31,4.61
7859,4.31,4.60
7860,4.31,4.60
7861,4.31,4.60
7863,4.31,4.60
7864,4.31,4.60
7865,4.31,4.60
7866,4.31,4.60
7867,4.31,4.60
7868,4.31,4.60
7869,4.31,4.60
7870,4.31,4.60
7872,4.31,4.60
7873,4.31,4.60
7874,4.31,4.60
7875,4.31,4.60
7876,4.31,4.60
7877,4.31,4.60
7878,4.31,4.60
7879,4.31,4.60
7881,4.31,4.60
7882,4.31,4.60
7883,4.31,4.60
7884,4.31,4.60
7885,4.31,4.60
7886,4.31,4.60
7887,4.31,4.60
7888,4.31,4.60
7890,4.31,4.60
7891,4.31,4.60
7892,4.31,4.60
7894,4.31,4.60
7895,4.31,4.60
7896,4.31,4.60
7897,4.31,4.59
7898,4.31,4.59
7900,4.31,4.59
7901,4.31,4.59
7902,4.31,4.59
7903,4.31,4.59
7904,4.31,4.59
7905,4.31,4.59
7906,4.31,4.59
7907,4.31,4.59
7909,4.31,4.59
7910,4.31,4.59
7911,4.31,4.59
7912,4.31,4.59
7913,4.31,4.59
7914,4.31,4.59
7915,4.31,4.59
7916,4.31,4.59
7918,4.31,4.58
7919,4.31,4.58
7920,4.31,4.58
7921,4.31,4.58
7922,4.31,4.58
7923,4.31,4.58
7924,4.31,4.58
7925,4.31,4.58
7927,4.31,4.58
7928,4.31,4.58
7929,4.31,4.58
7930,4.31,4.57
7931,4.31,4.57
7932,4.31,4.57
7933,4.31,4.57
7934,4.31,4.57
7937,4.31,4.57
7938,4.31,4.57
7939,4.31,4.57
7940,4.31,4.57
7941,4.31,4.56
7942,4.31,4.56
7943,4.31,4.56
7945,4.31,4.56
7946,4.31,4.56
7947,4.31,4.56
7948,4.31,4.56
7949,4.31,4.55
7950,4.31,4.55
7951,4.31,4.55
7952,4.31,4.55
7954,4.31,4.55
7955,4.31,4.55
7956,4.31,4.55
7957,4.31,4.55
7958,4.31,4.55
7959,4.31,4.55
7960,4.31,4.54
7962,4.31,4.54
7963,4.31,4.54
7964,4.31,4.54
7965,4.31,4.54
7966,4.31,4.54
7967,4.31,4.53
7968,4.31,4.53
7970,4.31,4.53
7971,4.31,4.53
7972,4.31,4.53
7973,4.31,4.53
7974,4.31,4.52
7975,4.31,4.52
7976,4.31,4.52
7977,4.31,4.52
7980,4.31,4.51
7981,4.31,4.51
7982,4.31,4.51
7983,4.31,4.51
7984,4.31,4.50
7985,4.31,4.50
7986,4.31,4.50
7988,4.31,4.50
7989,4.31,4.49
7990,4.31,4.49
7991,4.31,4.49
7992,4.31,4.49
7993,4.31,4.48
7994,4.31,4.48
7995,4.31,4.48
7997,4.31,4.47
7998,4.31,4.47
7999,4.31,4.47
8000,4.31,4.46
8001,4.31,4.46
8002,4.31,4.46
8003,4.31,4.45
8005,4.31,4.45
8006,4.30,4.45
8007,4.31,4.44
8008,4.30,4.44
8009,4.30,4.44
8010,4.30,4.43
8011,4.30,4.43
8012,4.31,4.42
8014,4.30,4.42
8015,4.30,4.42
8016,4.30,4.41
8017,4.30,4.41
8018,4.30,4.41
8019,4.30,4.40
8020,4.30,4.40
8022,4.30,4.39
8024,4.30,4.39
8025,4.30,4.39
8026,4.30,4.38
8027,4.30,4.38
8028,4.30,4.37
8029,4.30,4.37
8030,4.30,4.37
8031,4.30,4.36
8033,4.30,4.36
8034,4.30,4.35
8035,4.30,4.35
8036,4.30,4.35
8037,4.29,4.35
8038,4.29,4.34
8039,4.29,4.34
8040,4.29,4.33
8042,4.29,4.33
8043,4.29,4.32
8044,4.29,4.32
8045,4.29,4.32
8046,4.29,4.31
8047,4.29,4.31
8048,4.29,4.30
8049,4.29,4.30
8051,4.29,4.29
8052,4.29,4.29
8053,4.29,4.29
8054,4.29,4.28
8055,4.29,4.28
8056,4.29,4.27
8057,4.29,4.27
8058,4.29,4.27
8060,4.29,4.26
8061,4.29,4.26
8062,4.29,4.25
8064,4.29,4.25
8065,4.29,4.25
8066,4.29,4.24
8067,4.29,4.24
8069,4.29,4.24
8070,4.29,4.23
8071,4.29,4.23
8072,4.29,4.23
8073,4.29,4.22
8074,4.29,4.22
8075,4.29,4.22
8076,4.29,4.21
8078,4.29,4.21
8079,4.29,4.21
8080,4.29,4.20
8081,4.29,4.20
8082,4.29,4.20
8083,4.29,4.19
8084,4.29,4.19
8085,4.29,4.19
8087,4.29,4.19
8088,4.29,4.18
8089,4.29,4.18
8090,4.29,4.18
8091,4.29,4.18
8092,4.29,4.18
8093,4.29,4.17
8094,4.29,4.17
8096,4.29,4.17
8097,4.29,4.17
8098,4.29,4.16
8099,4.29,4.16
8100,4.29,4.16
8101,4.29,4.16
8102,4.29,4.16
8103,4.29,4.16
8105,4.29,4.15
8107,4.29,4.15
8108,4.29,4.15
8109,4.29,4.15
8110,4.29,4.15
8111,4.29,4.14
8112,4.29,4.14
8113,4.29,4.14
8115,4.29,4.14
8116,4.29,4.14
8117,4.29,4.14
8118,4.29,4.14
8119,4.29,4.14
8120,4.29,4.14
8121,4.29,4.14
8122,4.29,4.13
8124,4.29,4.13
8125,4.29,4.13
8126,4.29,4.13
8127,4.29,4.13
8128,4.29,4.13
8129,4.29,4.13
8130,4.29,4.13
8131,4.29,4.13
8133,4.29,4.13
8134,4.29,4.13
8135,4.29,4.13
8136,4.29,4.13
8137,4.29,4.13
8138,4.29,4.13
8139,4.30,4.13
8141,4.29,4.13
8142,4.30,4.13
8143,4.30,4.13
8144,4.30,4.13
8145,4.30,4.13
8146,4.30,4.13
8147,4.30,4.13
8148,4.30,4.13
8151,4.30,4.13
8152,4.30,4.13
8153,4.30,4.13
8154,4.30,4.13
8155,4.30,4.13
8156,4.30,4.13
8157,4.30,4.13
8159,4.30,4.13
8160,4.30,4.13
8161,4.30,4.13
8162,4.30,4.13
8163,4.30,4.13
8164,4.30,4.13
8165,4.30,4.13
8167,4.30,4.13
8168,4.30,4.13
8169,4.30,4.13
8170,4.30,4.13
8171,4.30,4.13
8172,4.30,4.13
8173,4.30,4.13
8174,4.30,4.13
8176,4.30,4.13
8177,4.30,4.13
8178,4.30,4.13
8179,4.30,4.13
8180,4.30,4.13
8181,4.30,4.13
8182,4.30,4.13
8184,4.30,4.13
8185,4.30,4.13
8186,4.30,4.13
8187,4.30,4.13
8188,4.30,4.13
8189,4.30,4.13
8190,4.30,4.13
8192,4.30,4.13
8194,4.30,4.13
8195,4.30,4.13
8196,4.30,4.13
8197,4.30,4.13
8198,4.30,4.13
8199,4.30,4.13
8200,4.30,4.13
8201,4.31,4.13
8203,4.31,4.13
8204,4.30,4.13
8205,4.30,4.13
8206,4.30,4.13
8207,4.30,4.13
8208,4.30,4.13
8209,4.30,4.13
8210,4.30,4.13
8212,4.30,4.13
8213,4.30,4.13
8214,4.30,4.13
8215,4.31,4.13
8216,4.31,4.13
8217,4.31,4.13
8218,4.31,4.13
8219,4.30,4.13
8221,4.30,4.13
8222,4.30,4.13
8223,4.30,4.13
8224,4.30,4.13
8225,4.30,4.13
8226,4.30,4.13
8227,4.30,4.13
8228,4.30,4.13
8230,4.31,4.13
8231,4.31,4.13
8232,4.30,4.13
8233,4.30,4.13
8235,4.30,4.13
8236,4.30,4.13
8237,4.30,4.13
8238,4.30,4.13
8240,4.30,4.13
8241,4.30,4.13
8242,4.30,4.13
8243,4.30,4.13
8244,4.30,4.13
8245,4.30,4.13
8246,4.30,4.13
8248,4.30,4.13
8249,4.30,4.13
8250,4.30,4.13
8251,4.30,4.13
8252,4.30,4.13
8253,4.30,4.13
8254,4.30,4.13
8255,4.30,4.13
8257,4.30,4.14
8258,4.30,4.13
8259,4.30,4.14
8260,4.30,4.14
8261,4.30,4.14
8262,4.30,4.14
8263,4.30,4.14
8264,4.30,4.15
8266,4.30,4.15
8267,4.30,4.15
8268,4.30,4.15
8269,4.30,4.15
8270,4.30,4.16
8271,4.30,4.16
8272,4.30,4.16
8273,4.30,4.17
8275,4.30,4.17
8276,4.30,4.17
8278,4.30,4.17
8279,4.30,4.18
8280,4.30,4.18
8281,4.30,4.18
8282,4.30,4.18
8283,4.30,4.19
8285,4.30,4.19
8286,4.30,4.19
8287,4.30,4.20
8288,4.30,4.20
8289,4.30,4.20
8290,4.30,4.21
8291,4.30,4.21
8292,4.30,4.21
8294,4.30,4.21
8295,4.30,4.22
8296,4.30,4.22
8297,4.30,4.22
8298,4.30,4.22
8299,4.30,4.22
8300,4.30,4.23
8301,4.30,4.23
8303,4.30,4.23
8304,4.30,4.24
8305,4.30,4.24
8306,4.30,4.24
8307,4.30,4.24
8308,4.30,4.25
8309,4.30,4.25
8310,4.30,4.25
8312,4.30,4.25
8313,4.30,4.25
8314,4.30,4.26
8315,4.30,4.26
8316,4.30,4.26
8317,4.30,4.26
8318,4.30,4.27
8320,4.30,4.27
8322,4.30,4.27
8323,4.30,4.27
8324,4.30,4.28
8325,4.30,4.28
8326,4.30,4.28
8327,4.30,4.28
8328,4.30,4.28
8329,4.30,4.28
8331,4.30,4.29
8332,4.30,4.29
8333,4.30,4.29
8334,4.30,4.29
8335,4.30,4.29
8336,4.30,4.30
8337,4.30,4.30
8338,4.30,4.30
8340,4.30,4.30
8341,4.30,4.30
8342,4.30,4.31
8343,4.30,4.31
8344,4.30,4.31
8345,4.30,4.31
8346,4.30,4.31
8347,4.30,4.32
8349,4.30,4.32
8350,4.30,4.32
8351,4.30,4.32
8352,4.30,4.32
8353,4.30,4.32
8354,4.30,4.33
8355,4.30,4.33
8356,4.30,4.33
8358,4.30,4.33
8359,4.30,4.34
8360,4.30,4.34
8361,4.30,4.34
8363,4.30,4.34
8364,4.30,4.35
8365,4.30,4.35
8367,4.30,4.35
8368,4.30,4.35
8369,4.30,4.35
8370,4.30,4.36
8371,4.30,4.36
8372,4.30,4.37
8373,4.30,4.37
8374,4.30,4.37
8376,4.30,4.38
8377,4.30,4.38
8378,4.30,4.38
8379,4.30,4.39
8380,4.30,4.39
8381,4.30,4.39
8382,4.30,4.39
8383,4.30,4.40
8385,4.30,4.40
8386,4.30,4.40
8387,4.30,4.40
8388,4.30,4.41
8389,4.30,4.41
8390,4.30,4.41
8391,4.30,4.41
8392,4.30,4.41
8394,4.30,4.42
8395,4.30,4.42
8396,4.30,4.42
8397,4.30,4.42
8398,4.30,4.42
8399,4.30,4.42
8400,4.30,4.42
8401,4.30,4.43
8403,4.30,4.43
8404,4.30,4.43
8406,4.30,4.44
8407,4.30,4.44
8408,4.30,4.44
8409,4.30,4.44
8410,4.30,4.45
8411,4.30,4.45
8413,4.30,4.45
8414,4.30,4.45
8415,4.30,4.46
8416,4.29,4.46
8417,4.30,4.46
8418,4.30,4.46
8419,4.30,4.47
8420,4.30,4.47
8422,4.30,4.47
8423,4.30,4.48
8424,4.30,4.48
8425,4.29,4.48
8426,4.30,4.49
8427,4.29,4.49
8428,4.29,4.49
8429,4.30,4.49
8431,4.29,4.50
8432,4.30,4.50
8433,4.30,4.50
8434,4.30,4.50
8435,4.30,4.51
8436,4.30,4.51
8437,4.30,4.51
8438,4.30,4.52
8440,4.30,4.52
8441,4.30,4.53
8442,4.29,4.53
8443,4.29,4.53
8444,4.30,4.53
8445,4.29,4.54
8446,4.29,4.54
8448,4.30,4.54
8450,4.30,4.54
8451,4.30,4.55
8452,4.30,4.55
8453,4.30,4.55
8454,4.30,4.55
8455,4.30,4.56
8456,4.30,4.56
8457,4.30,4.56
8459,4.30,4.56
8460,4.30,4.56
8461,4.30,4.56
8462,4.29,4.56
8463,4.29,4.57
8464,4.29,4.57
8465,4.29,4.57
8467,4.29,4.57
8468,4.29,4.57
8469,4.29,4.57
8470,4.29,4.57
8471,4.29,4.57
8472,4.29,4.57
8473,4.29,4.57
8474,4.29,4.57
8476,4.29,4.57
8477,4.29,4.57
8478,4.29,4.57
8479,4.29,4.56
8480,4.29,4.56
8481,4.29,4.56
8482,4.29,4.56
8484,4.29,4.56
8485,4.29,4.56
8486,4.29,4.55
8487,4.29,4.55
8488,4.29,4.55
8489,4.29,4.55
8491,4.29,4.55
8492,4.29,4.54
8494,4.29,4.54
8495,4.29,4.53
8496,4.29,4.53
8497,4.29,4.53
8498,4.29,4.52
8499,4.29,4.52
8500,4.29,4.52
8502,4.29,4.51
8503,4.29,4.51
8504,4.29,4.51
8505,4.29,4.50
8506,4.29,4.50
8507,4.28,4.49
8508,4.29,4.49
8509,4.28,4.49
8511,4.28,4.48
8512,4.28,4.48
8513,4.28,4.48
8514,4.28,4.47
8515,4.28,4.47
8516,4.28,4.46
8517,4.28,4.46
8518,4.28,4.46
8520,4.28,4.45
8521,4.28,4.45
8522,4.28,4.45
8523,4.28,4.44
8524,4.28,4.44
8525,4.28,4.44
8526,4.28,4.44
8527,4.28,4.43
8529,4.28,4.43
8530,4.28,4.43
8531,4.28,4.42
8532,4.28,4.42
8534,4.28,4.42
8535,4.28,4.42
8536,4.27,4.41
8537,4.28,4.41
8539,4.27,4.41
8540,4.27,4.41
8541,4.27,4.40
8542,4.27,4.40
8543,4.27,4.40
8544,4.27,4.40
8545,4.27,4.40
8546,4.27,4.40
8548,4.27,4.39
8549,4.27,4.39
8550,4.27,4.39
8551,4.27,4.39
8552,4.27,4.39
8553,4.27,4.39
8554,4.27,4.39
8555,4.27,4.38
8557,4.27,4.39
8558,4.27,4.38
8559,4.27,4.38
8560,4.27,4.38
8561,4.27,4.38
8562,4.27,4.38
8563,4.27,4.38
8564,4.27,4.38
8566,4.27,4.38
8567,4.27,4.38
8568,4.27,4.38
8569,4.27,4.38
8570,4.27,4.37
8571,4.27,4.37
8572,4.27,4.38
8573,4.27,4.37
8576,4.27,4.37
8577,4.27,4.37
8578,4.27,4.37
8579,4.27,4.37
8580,4.27,4.37
8581,4.27,4.37
8582,4.28,4.37
8583,4.28,4.37
8585,4.28,4.37
8586,4.28,4.37
8587,4.28,4.37
8588,4.28,4.37
8589,4.28,4.37
8590,4.28,4.37
8591,4.28,4.37
8592,4.28,4.37
8594,4.28,4.37
8595,4.28,4.37
8596,4.28,4.37
8597,4.28,4.37
8598,4.28,4.37
8599,4.28,4.37
8600,4.28,4.37
8601,4.28,4.37
8603,4.28,4.37
8604,4.28,4.37
8605,4.28,4.37
8606,4.28,4.37
8607,4.28,4.37
8608,4.28,4.37
8609,4.28,4.37
8611,4.28,4.37
8612,4.28,4.37
8613,4.28,4.37
8614,4.28,4.37
8615,4.28,4.37
8616,4.28,4.37
8617,4.28,4.37
8619,4.28,4.37
8621,4.29,4.37
8622,4.28,4.37
8623,4.29,4.38
8624,4.28,4.37
8625,4.28,4.38
8626,4.28,4.37
8627,4.28,4.38
8628,4.28,4.38
8630,4.28,4.38
8631,4.28,4.38
8632,4.29,4.38
8633,4.28,4.38
8634,4.28,4.38
8635,4.29,4.38
8636,4.29,4.38
8637,4.28,4.38
8639,4.28,4.38
8640,4.28,4.38
8641,4.28,4.37
8642,4.27,4.35
8643,4.25,4.32
8644,4.22,4.28
8645,4.17,4.24
8646,4.13,4.20
8648,4.09,4.16
8649,4.06,4.15
8650,4.04,4.14
8651,4.03,4.13
8652,4.03,4.13
8653,4.02,4.14
8654,4.03,4.14
8655,4.03,4.14
8657,4.03,4.13
8658,4.01,4.10
8659,3.98,4.06
8660,3.95,4.03
8662,3.91,3.99
8663,3.87,3.95
8664,3.84,3.91
8665,3.80,3.90
8667,3.78,3.88
8668,3.77,3.87
8669,3.76,3.87
8670,3.76,3.87
8671,3.76,3.88
8672,3.77,3.88
8673,3.78,3.88
8674,3.78,3.86
8676,3.76,3.84
8677,3.74,3.81
8678,3.72,3.79
8679,3.69,3.76
8680,3.67,3.73
8681,3.64,3.71
8682,3.63,3.70
8683,3.62,3.70
8685,3.62,3.70
8686,3.63,3.70
8687,3.64,3.72
8688,3.66,3.73
8689,3.68,3.74
8690,3.70,3.74
8691,3.69,3.73
8692,3.68,3.71
8694,3.67,3.69
8695,3.65,3.67
8696,3.63,3.65
8697,3.61,3.63
8698,3.60,3.63
8699,3.59,3.63
8700,3.60,3.63
8701,3.60,3.64
8704,3.62,3.65
8705,3.64,3.67
8706,3.67,3.69
8707,3.69,3.69
8708,3.70,3.69
8709,3.69,3.67
8710,3.68,3.66
8712,3.67,3.64
8713,3.65,3.62
8714,3.63,3.61
8715,3.62,3.60
8716,3.61,3.60
8717,3.61,3.60
8718,3.62,3.60
8719,3.63,3.62
8721,3.65,3.63
8722,3.67,3.65
8723,3.70,3.66
8724,3.70,3.66
8725,3.70,3.65
