time_ms,ch1_v,ch2_v
72,3.86,3.63
73,3.83,3.62
74,3.81,3.60
75,3.79,3.59
76,3.77,3.59
77,3.77,3.59
78,3.77,3.60
79,3.79,3.61
80,3.82,3.63
81,3.84,3.65
82,3.88,3.67
83,3.90,3.68
86,3.91,3.67
87,3.90,3.67
88,3.89,3.66
89,3.87,3.65
90,3.85,3.63
91,3.83,3.62
92,3.81,3.60
93,3.78,3.59
94,3.77,3.59
95,3.77,3.59
96,3.78,3.60
97,3.80,3.61
98,3.82,3.63
99,3.85,3.65
100,3.88,3.67
101,3.90,3.67
102,3.90,3.67
103,3.90,3.66
104,3.88,3.65
105,3.86,3.63
106,3.84,3.62
107,3.82,3.61
108,3.79,3.59
110,3.77,3.58
111,3.76,3.58
112,3.77,3.59
113,3.79,3.60
114,3.81,3.62
115,3.84,3.64
116,3.87,3.67
117,3.89,3.67
118,3.90,3.67
119,3.90,3.66
120,3.88,3.65
121,3.87,3.64
122,3.84,3.62
124,3.82,3.61
125,3.80,3.59
126,3.77,3.59
128,3.76,3.59
129,3.77,3.60
130,3.79,3.60
131,3.81,3.62
132,3.84,3.64
133,3.87,3.67
134,3.90,3.68
135,3.91,3.67
136,3.90,3.67
137,3.89,3.66
139,3.87,3.64
140,3.85,3.63
141,3.83,3.61
142,3.81,3.60
143,3.78,3.59
144,3.77,3.59
145,3.77,3.60
146,3.79,3.61
147,3.81,3.62
148,3.84,3.64
149,3.87,3.67
150,3.90,3.67
151,3.90,3.67
153,3.90,3.66
154,3.89,3.65
155,3.87,3.64
156,3.85,3.63
157,3.82,3.61
158,3.80,3.59
159,3.77,3.58
160,3.76,3.58
161,3.76,3.59
162,3.78,3.60
163,3.80,3.62
164,3.83,3.64
165,3.86,3.66
167,3.89,3.67
168,3.90,3.68
169,3.90,3.67
171,3.89,3.65
172,3.87,3.64
173,3.85,3.63
174,3.83,3.61
175,3.81,3.60
176,3.78,3.59
177,3.77,3.58
178,3.77,3.59
179,3.78,3.60
180,3.80,3.62
182,3.83,3.64
183,3.86,3.66
184,3.89,3.68
185,3.91,3.68
186,3.91,3.67
187,3.89,3.66
188,3.88,3.65
189,3.86,3.64
190,3.83,3.62
191,3.81,3.60
192,3.79,3.59
193,3.77,3.59
195,3.77,3.59
196,3.78,3.60
197,3.80,3.62
198,3.83,3.64
199,3.86,3.66
200,3.89,3.67
201,3.90,3.67
202,3.90,3.67
203,3.89,3.65
204,3.87,3.64
205,3.85,3.63
206,3.83,3.61
207,3.81,3.60
209,3.78,3.58
210,3.76,3.58
211,3.76,3.58
212,3.77,3.59
214,3.80,3.61
215,3.82,3.63
216,3.85,3.65
217,3.88,3.67
218,3.90,3.67
219,3.90,3.67
220,3.89,3.66
221,3.88,3.65
222,3.86,3.64
224,3.84,3.62
225,3.81,3.60
226,3.79,3.59
227,3.77,3.59
228,3.77,3.59
229,3.78,3.60
230,3.80,3.61
231,3.82,3.63
232,3.85,3.65
233,3.88,3.67
234,3.90,3.68
235,3.91,3.67
236,3.90,3.66
237,3.88,3.65
239,3.87,3.64
240,3.84,3.63
241,3.82,3.61
242,3.79,3.60
243,3.77,3.58
244,3.77,3.59
245,3.78,3.60
246,3.80,3.61
247,3.82,3.63
248,3.85,3.65
249,3.88,3.67
250,3.90,3.68
251,3.90,3.67
253,3.89,3.66
254,3.88,3.65
256,3.86,3.63
257,3.84,3.62
258,3.81,3.60
259,3.79,3.59
260,3.77,3.58
261,3.76,3.58
262,3.77,3.59
263,3.78,3.60
264,3.81,3.62
265,3.84,3.64
266,3.87,3.66
268,3.89,3.67
269,3.90,3.67
270,3.90,3.66
271,3.88,3.65
272,3.86,3.64
273,3.84,3.62
274,3.82,3.61
275,3.79,3.59
276,3.77,3.59
277,3.76,3.59
278,3.77,3.59
279,3.79,3.61
280,3.81,3.62
282,3.84,3.64
283,3.87,3.67
284,3.90,3.68
285,3.90,3.67
286,3.90,3.67
287,3.89,3.66
288,3.87,3.64
289,3.85,3.63
290,3.83,3.61
291,3.80,3.60
292,3.78,3.59
293,3.77,3.59
294,3.77,3.59
296,3.79,3.61
297,3.81,3.62
299,3.84,3.64
300,3.87,3.67
301,3.90,3.68
302,3.90,3.67
303,3.90,3.66
304,3.88,3.65
305,3.87,3.64
306,3.84,3.63
307,3.82,3.61
308,3.80,3.59
309,3.77,3.58
311,3.76,3.58
312,3.76,3.59
313,3.78,3.60
314,3.80,3.61
315,3.83,3.64
316,3.86,3.66
317,3.89,3.67
318,3.90,3.67
319,3.90,3.67
320,3.89,3.65
321,3.87,3.64
322,3.85,3.63
324,3.83,3.61
325,3.80,3.60
326,3.78,3.58
327,3.76,3.59
328,3.77,3.59
329,3.78,3.60
330,3.80,3.62
331,3.83,3.64
332,3.86,3.66
333,3.89,3.68
334,3.90,3.68
335,3.90,3.67
336,3.89,3.66
338,3.88,3.65
339,3.86,3.63
340,3.84,3.62
342,3.81,3.60
343,3.78,3.59
344,3.77,3.59
345,3.77,3.59
346,3.78,3.61
347,3.81,3.62
348,3.83,3.64
349,3.86,3.66
350,3.89,3.68
351,3.90,3.67
353,3.90,3.67
354,3.89,3.66
355,3.87,3.64
356,3.85,3.63
357,3.83,3.62
358,3.81,3.60
359,3.78,3.58
360,3.76,3.58
361,3.76,3.59
362,3.78,3.60
363,3.80,3.61
364,3.83,3.63
365,3.85,3.65
367,3.89,3.67
368,3.90,3.67
369,3.90,3.67
370,3.89,3.67
371,3.88,3.65
372,3.86,3.63
373,3.84,3.62
374,3.81,3.60
375,3.79,3.59
376,3.77,3.59
377,3.77,3.59
378,3.78,3.60
379,3.80,3.61
381,3.82,3.63
382,3.85,3.65
384,3.89,3.67
385,3.90,3.68
386,3.91,3.67
387,3.90,3.66
388,3.88,3.65
389,3.87,3.64
390,3.84,3.63
391,3.82,3.61
392,3.79,3.59
393,3.77,3.59
394,3.77,3.59
396,3.78,3.60
397,3.80,3.62
398,3.83,3.63
399,3.86,3.65
400,3.89,3.67
401,3.90,3.68
402,3.90,3.67
403,3.90,3.66
404,3.88,3.65
405,3.86,3.63
406,3.84,3.62
407,3.82,3.60
408,3.79,3.59
410,3.77,3.58
411,3.76,3.58
412,3.77,3.59
413,3.79,3.61
414,3.82,3.62
415,3.85,3.65
416,3.88,3.67
417,3.90,3.67
418,3.90,3.67
419,3.90,3.66
420,3.88,3.65
421,3.86,3.64
422,3.84,3.62
424,3.82,3.61
425,3.79,3.59
427,3.77,3.58
428,3.76,3.59
429,3.77,3.59
430,3.79,3.61
431,3.82,3.62
432,3.85,3.65
433,3.88,3.67
434,3.90,3.68
435,3.91,3.67
436,3.90,3.66
437,3.89,3.65
439,3.87,3.64
440,3.85,3.63
441,3.82,3.61
442,3.80,3.59
443,3.78,3.59
444,3.77,3.59
445,3.77,3.60
446,3.79,3.61
447,3.81,3.62
448,3.84,3.64
449,3.88,3.67
450,3.90,3.67
451,3.91,3.67
453,3.90,3.66
454,3.89,3.65
455,3.87,3.63
456,3.85,3.62
457,3.82,3.61
458,3.80,3.59
459,3.77,3.58
460,3.76,3.58
461,3.77,3.59
462,3.78,3.60
463,3.81,3.62
464,3.84,3.64
465,3.87,3.66
467,3.89,3.67
468,3.90,3.67
470,3.90,3.66
471,3.89,3.65
472,3.87,3.64
473,3.85,3.63
474,3.83,3.61
475,3.80,3.60
476,3.78,3.58
477,3.77,3.59
478,3.77,3.59
479,3.78,3.60
480,3.81,3.62
482,3.83,3.64
483,3.87,3.66
484,3.89,3.67
485,3.91,3.67
486,3.90,3.67
487,3.89,3.65
488,3.87,3.64
489,3.86,3.63
490,3.83,3.62
491,3.81,3.60
492,3.78,3.59
493,3.77,3.59
494,3.77,3.59
496,3.78,3.60
497,3.81,3.62
498,3.83,3.63
499,3.86,3.66
500,3.89,3.68
501,3.91,3.68
502,3.91,3.67
503,3.90,3.66
504,3.88,3.65
505,3.86,3.63
506,3.84,3.62
507,3.81,3.61
508,3.79,3.59
510,3.77,3.59
512,3.77,3.59
513,3.78,3.60
514,3.81,3.62
515,3.83,3.64
516,3.86,3.66
517,3.89,3.68
518,3.91,3.68
519,3.91,3.67
520,3.90,3.66
521,3.88,3.65
522,3.86,3.64
524,3.84,3.62
525,3.81,3.60
526,3.79,3.59
527,3.77,3.59
528,3.77,3.59
529,3.78,3.60
530,3.80,3.62
531,3.83,3.63
532,3.86,3.66
533,3.89,3.68
534,3.91,3.68
535,3.91,3.67
536,3.90,3.66
538,3.88,3.65
539,3.86,3.64
540,3.84,3.62
541,3.81,3.61
542,3.79,3.59
543,3.77,3.59
544,3.77,3.59
545,3.78,3.60
546,3.80,3.62
547,3.83,3.63
548,3.86,3.66
549,3.89,3.68
551,3.90,3.68
552,3.91,3.67
553,3.90,3.66
555,3.88,3.65
556,3.86,3.64
557,3.84,3.62
558,3.82,3.61
559,3.79,3.59
560,3.77,3.59
561,3.77,3.59
562,3.78,3.60
563,3.80,3.62
564,3.83,3.63
565,3.86,3.65
567,3.89,3.67
568,3.91,3.68
569,3.91,3.67
570,3.90,3.66
571,3.89,3.65
572,3.87,3.64
573,3.84,3.63
574,3.82,3.61
575,3.80,3.59
576,3.77,3.59
577,3.77,3.59
578,3.78,3.60
580,3.80,3.61
581,3.82,3.63
582,3.85,3.65
583,3.88,3.67
584,3.90,3.68
585,3.91,3.68
586,3.90,3.66
587,3.88,3.65
588,3.87,3.64
589,3.85,3.63
590,3.82,3.61
591,3.80,3.59
592,3.77,3.59
593,3.77,3.59
595,3.77,3.60
596,3.79,3.61
598,3.82,3.63
599,3.85,3.65
600,3.88,3.67
601,3.90,3.67
602,3.90,3.67
603,3.89,3.66
604,3.88,3.65
605,3.86,3.63
606,3.84,3.62
607,3.81,3.60
609,3.79,3.59
610,3.76,3.58
611,3.76,3.58
612,3.76,3.59
613,3.78,3.60
614,3.81,3.62
615,3.84,3.64
616,3.87,3.66
617,3.89,3.67
618,3.90,3.67
619,3.89,3.66
620,3.88,3.65
621,3.86,3.63
623,3.84,3.62
624,3.82,3.61
625,3.79,3.59
626,3.77,3.58
627,3.76,3.58
628,3.77,3.59
629,3.78,3.60
630,3.81,3.62
631,3.84,3.64
632,3.87,3.66
633,3.90,3.68
634,3.90,3.67
635,3.90,3.66
637,3.88,3.65
638,3.87,3.64
640,3.85,3.63
641,3.82,3.61
642,3.80,3.60
643,3.77,3.59
644,3.76,3.59
645,3.77,3.59
646,3.79,3.60
647,3.81,3.62
648,3.84,3.64
649,3.87,3.66
650,3.90,3.68
652,3.91,3.68
653,3.90,3.67
654,3.89,3.66
655,3.87,3.64
656,3.86,3.63
657,3.83,3.61
658,3.81,3.60
659,3.78,3.59
660,3.77,3.59
661,3.77,3.59
662,3.79,3.61
663,3.81,3.62
665,3.84,3.64
666,3.87,3.66
667,3.90,3.68
668,3.91,3.68
669,3.91,3.67
670,3.89,3.66
671,3.88,3.65
672,3.86,3.63
673,3.84,3.62
674,3.81,3.60
675,3.78,3.59
676,3.77,3.59
677,3.77,3.59
679,3.79,3.60
680,3.81,3.62
681,3.84,3.64
683,3.87,3.66
684,3.90,3.68
685,3.91,3.68
686,3.90,3.67
687,3.90,3.66
688,3.88,3.65
689,3.86,3.64
690,3.83,3.62
691,3.81,3.60
692,3.78,3.59
694,3.77,3.58
695,3.77,3.59
696,3.79,3.60
697,3.81,3.62
698,3.83,3.64
699,3.86,3.66
700,3.89,3.68
701,3.91,3.68
702,3.91,3.67
703,3.90,3.66
704,3.88,3.65
705,3.86,3.64
706,3.84,3.62
708,3.81,3.60
709,3.79,3.59
710,3.77,3.59
711,3.77,3.59
712,3.78,3.60
713,3.80,3.62
714,3.83,3.64
715,3.86,3.66
716,3.89,3.68
717,3.91,3.68
718,3.91,3.67
719,3.90,3.66
721,3.88,3.65
722,3.86,3.64
723,3.84,3.62
724,3.81,3.61
726,3.79,3.59
727,3.77,3.59
728,3.77,3.59
729,3.78,3.60
730,3.80,3.62
731,3.83,3.64
732,3.86,3.66
733,3.89,3.68
734,3.91,3.68
736,3.91,3.67
737,3.90,3.66
738,3.88,3.65
739,3.86,3.64
740,3.84,3.62
741,3.82,3.61
742,3.79,3.59
743,3.77,3.59
744,3.77,3.59
745,3.78,3.60
746,3.80,3.62
747,3.83,3.63
748,3.86,3.66
750,3.89,3.68
751,3.91,3.68
752,3.91,3.68
753,3.90,3.67
754,3.88,3.65
755,3.87,3.64
756,3.84,3.63
757,3.82,3.61
758,3.80,3.59
759,3.77,3.59
760,3.77,3.59
761,3.78,3.60
763,3.80,3.61
764,3.82,3.63
765,3.85,3.65
766,3.89,3.67
768,3.91,3.68
769,3.91,3.68
770,3.90,3.67
771,3.88,3.65
772,3.87,3.64
773,3.84,3.62
774,3.82,3.61
775,3.80,3.59
776,3.77,3.59
778,3.77,3.59
779,3.78,3.60
780,3.80,3.61
781,3.82,3.63
782,3.85,3.65
783,3.88,3.67
784,3.90,3.68
785,3.91,3.68
786,3.90,3.67
787,3.89,3.65
788,3.87,3.64
789,3.85,3.63
790,3.82,3.61
792,3.80,3.60
793,3.77,3.59
794,3.77,3.59
795,3.78,3.60
796,3.79,3.61
797,3.82,3.63
798,3.85,3.65
799,3.88,3.67
800,3.90,3.68
801,3.91,3.68
802,3.90,3.67
803,3.89,3.66
804,3.87,3.64
806,3.85,3.63
807,3.83,3.61
808,3.80,3.60
809,3.78,3.59
811,3.77,3.59
812,3.78,3.60
813,3.79,3.61
814,3.82,3.62
815,3.85,3.64
816,3.88,3.67
817,3.90,3.68
818,3.91,3.68
819,3.90,3.67
821,3.89,3.66
822,3.87,3.65
823,3.85,3.63
824,3.83,3.61
825,3.80,3.60
826,3.78,3.59
827,3.77,3.59
828,3.77,3.60
829,3.79,3.61
830,3.81,3.62
831,3.84,3.64
832,3.87,3.67
834,3.90,3.68
835,3.91,3.68
836,3.90,3.67
837,3.89,3.66
838,3.87,3.65
839,3.85,3.63
840,3.83,3.62
841,3.80,3.60
842,3.78,3.59
843,3.77,3.59
844,3.77,3.60
845,3.79,3.60
846,3.81,3.62
848,3.84,3.64
849,3.87,3.67
850,3.90,3.68
851,3.91,3.68
852,3.91,3.67
854,3.89,3.66
855,3.88,3.65
856,3.86,3.64
857,3.83,3.62
858,3.81,3.60
859,3.78,3.59
860,3.77,3.59
861,3.77,3.60
863,3.79,3.61
864,3.81,3.62
865,3.84,3.64
866,3.87,3.66
867,3.90,3.68
868,3.91,3.68
869,3.91,3.67
870,3.90,3.66
871,3.88,3.65
872,3.86,3.63
873,3.84,3.62
874,3.81,3.60
875,3.78,3.59
877,3.77,3.59
878,3.77,3.59
879,3.79,3.60
880,3.81,3.62
881,3.84,3.64
882,3.87,3.66
883,3.90,3.68
884,3.91,3.68
885,3.91,3.67
886,3.90,3.66
887,3.88,3.65
888,3.86,3.64
890,3.84,3.62
891,3.81,3.60
892,3.79,3.59
893,3.77,3.59
894,3.77,3.59
896,3.78,3.60
897,3.81,3.62
898,3.83,3.64
899,3.86,3.66
900,3.89,3.68
901,3.91,3.68
902,3.91,3.67
903,3.90,3.66
905,3.88,3.65
906,3.86,3.64
907,3.84,3.62
908,3.81,3.60
909,3.79,3.59
910,3.77,3.59
911,3.77,3.59
912,3.78,3.60
913,3.80,3.62
914,3.83,3.64
915,3.86,3.66
916,3.89,3.68
917,3.91,3.68
919,3.91,3.67
920,3.90,3.66
921,3.88,3.65
922,3.86,3.64
923,3.84,3.62
924,3.82,3.61
925,3.79,3.59
926,3.77,3.59
927,3.77,3.59
928,3.78,3.60
929,3.80,3.61
930,3.83,3.64
931,3.86,3.66
933,3.89,3.68
934,3.91,3.68
935,3.91,3.67
936,3.90,3.66
937,3.88,3.65
939,3.87,3.64
940,3.84,3.62
941,3.82,3.61
942,3.79,3.59
943,3.77,3.59
944,3.77,3.59
945,3.78,3.60
946,3.80,3.61
948,3.83,3.63
949,3.86,3.65
950,3.89,3.68
951,3.90,3.68
952,3.91,3.68
953,3.90,3.67
954,3.89,3.65
955,3.87,3.64
956,3.85,3.63
957,3.82,3.61
958,3.80,3.59
959,3.77,3.59
960,3.77,3.59
962,3.78,3.60
963,3.80,3.61
964,3.82,3.63
965,3.85,3.65
966,3.88,3.67
967,3.90,3.68
968,3.91,3.68
969,3.90,3.67
970,3.89,3.66
971,3.87,3.64
972,3.85,3.63
973,3.82,3.61
974,3.80,3.60
976,3.78,3.59
977,3.77,3.59
978,3.78,3.60
979,3.79,3.61
980,3.82,3.63
982,3.85,3.65
983,3.88,3.67
984,3.90,3.68
985,3.91,3.68
986,3.90,3.67
987,3.89,3.66
988,3.87,3.65
989,3.85,3.63
991,3.83,3.61
992,3.80,3.60
993,3.78,3.59
994,3.77,3.59
995,3.77,3.60
996,3.79,3.61
997,3.81,3.63
998,3.85,3.65
999,3.88,3.67
1000,3.90,3.68
1001,3.91,3.68
1003,3.90,3.67
1004,3.89,3.65
1005,3.87,3.64
1006,3.85,3.63
1007,3.82,3.61
1008,3.79,3.59
1009,3.77,3.59
1010,3.77,3.59
1012,3.78,3.60
1013,3.80,3.62
1014,3.83,3.64
1015,3.86,3.66
1016,3.89,3.68
1017,3.91,3.68
1018,3.90,3.67
1019,3.89,3.66
1021,3.88,3.65
1022,3.86,3.63
1024,3.83,3.62
1025,3.81,3.59
1026,3.78,3.59
1027,3.77,3.59
1028,3.77,3.60
1029,3.79,3.61
1031,3.82,3.63
1032,3.85,3.65
1033,3.88,3.67
1034,3.90,3.68
1035,3.91,3.67
1036,3.90,3.66
1037,3.88,3.65
1039,3.86,3.64
1040,3.84,3.62
1041,3.81,3.61
1042,3.79,3.59
1043,3.77,3.59
1044,3.77,3.59
1045,3.78,3.61
1046,3.81,3.62
1048,3.84,3.64
1049,3.87,3.66
1050,3.90,3.68
1051,3.91,3.68
1052,3.90,3.67
1053,3.89,3.66
1054,3.87,3.64
1056,3.85,3.63
1057,3.82,3.61
1058,3.80,3.60
1059,3.78,3.59
1060,3.77,3.59
1061,3.78,3.60
1062,3.80,3.61
1063,3.83,3.63
1065,3.86,3.65
1067,3.89,3.68
1068,3.91,3.68
1069,3.91,3.67
1070,3.90,3.66
1071,3.88,3.65
1072,3.86,3.64
1073,3.84,3.62
1075,3.81,3.60
1076,3.79,3.59
1077,3.77,3.59
1078,3.77,3.60
1079,3.79,3.61
1080,3.81,3.62
1081,3.84,3.64
1082,3.88,3.67
1084,3.90,3.68
1085,3.91,3.68
1086,3.90,3.67
1087,3.89,3.66
1088,3.87,3.64
1089,3.85,3.63
1090,3.82,3.61
1091,3.79,3.59
1093,3.77,3.59
1094,3.77,3.59
1095,3.78,3.60
1096,3.80,3.62
1097,3.83,3.64
1098,3.86,3.66
1099,3.89,3.68
1101,3.91,3.68
1102,3.91,3.67
1103,3.90,3.66
1104,3.88,3.65
1105,3.86,3.63
1106,3.83,3.62
1107,3.81,3.60
1108,3.78,3.59
1111,3.77,3.59
1112,3.78,3.60
1113,3.79,3.61
1114,3.82,3.63
1115,3.85,3.65
1116,3.88,3.67
1117,3.91,3.68
1119,3.91,3.68
1120,3.90,3.66
1121,3.88,3.65
1122,3.87,3.64
1123,3.84,3.62
1124,3.81,3.61
1125,3.79,3.59
1126,3.77,3.59
1128,3.77,3.59
1129,3.78,3.60
1130,3.81,3.62
1131,3.84,3.64
1132,3.87,3.66
1133,3.90,3.68
1134,3.91,3.67
1135,3.90,3.67
1137,3.89,3.66
1138,3.87,3.64
1139,3.85,3.63
1140,3.83,3.61
1141,3.80,3.60
1142,3.78,3.59
1143,3.77,3.59
1144,3.78,3.60
1146,3.80,3.61
1147,3.82,3.63
1148,3.86,3.65
1149,3.89,3.67
1150,3.91,3.68
1152,3.91,3.67
1153,3.90,3.66
1154,3.88,3.65
1156,3.86,3.64
1157,3.84,3.62
1158,3.81,3.60
1159,3.79,3.59
1160,3.77,3.59
1161,3.77,3.59
1162,3.79,3.61
1164,3.81,3.62
1165,3.84,3.64
1166,3.87,3.67
1167,3.90,3.68
1168,3.91,3.68
1169,3.90,3.67
1170,3.89,3.66
1171,3.87,3.64
1173,3.85,3.63
1174,3.82,3.61
1175,3.80,3.59
1176,3.77,3.59
1177,3.77,3.59
1178,3.78,3.60
1179,3.80,3.62
1180,3.83,3.63
1182,3.86,3.66
1183,3.89,3.68
1184,3.91,3.68
1185,3.91,3.67
1186,3.90,3.66
1187,3.88,3.65
1188,3.86,3.63
1189,3.83,3.62
1191,3.81,3.60
1192,3.78,3.59
1193,3.77,3.59
1195,3.77,3.60
1196,3.79,3.61
1197,3.82,3.62
1198,3.85,3.65
1200,3.88,3.67
1201,3.91,3.68
1202,3.91,3.68
1203,3.90,3.67
1204,3.89,3.65
1205,3.87,3.64
1206,3.84,3.62
1207,3.82,3.61
1209,3.79,3.59
1210,3.77,3.59
1211,3.77,3.59
1212,3.79,3.60
1213,3.81,3.62
1214,3.84,3.64
1215,3.87,3.66
1216,3.90,3.68
1218,3.91,3.68
1219,3.90,3.67
1220,3.89,3.66
1221,3.87,3.64
1222,3.85,3.63
1223,3.83,3.62
1224,3.80,3.60
1226,3.78,3.59
1227,3.77,3.59
1228,3.78,3.60
1229,3.80,3.61
1230,3.82,3.63
1231,3.85,3.65
1232,3.89,3.67
1233,3.91,3.68
1235,3.91,3.67
1236,3.90,3.66
1238,3.88,3.65
1239,3.86,3.63
1240,3.84,3.62
1241,3.81,3.60
1242,3.79,3.59
1243,3.77,3.59
1245,3.77,3.59
1246,3.79,3.60
1247,3.81,3.62
1248,3.84,3.64
1249,3.87,3.67
1250,3.90,3.68
1251,3.91,3.68
1252,3.90,3.67
1254,3.89,3.65
1255,3.87,3.64
1256,3.85,3.63
1257,3.82,3.61
1258,3.80,3.60
1259,3.78,3.59
1260,3.77,3.59
1261,3.78,3.60
1263,3.80,3.61
1264,3.83,3.63
1265,3.86,3.65
1266,3.89,3.68
1267,3.91,3.68
1268,3.91,3.67
1269,3.90,3.66
1270,3.88,3.65
1272,3.86,3.63
1273,3.83,3.62
1274,3.81,3.60
1275,3.78,3.59
1276,3.77,3.59
1277,3.77,3.59
1278,3.79,3.61
1281,3.82,3.63
1282,3.85,3.65
1283,3.88,3.67
1284,3.90,3.68
1285,3.91,3.68
1286,3.90,3.67
1287,3.89,3.65
1288,3.87,3.64
1290,3.84,3.62
1291,3.82,3.61
1292,3.79,3.59
1293,3.77,3.59
1294,3.77,3.59
1295,3.78,3.60
1296,3.80,3.62
1297,3.83,3.64
1299,3.86,3.66
1300,3.89,3.68
1301,3.91,3.68
1302,3.91,3.67
1303,3.89,3.66
1304,3.88,3.65
1305,3.85,3.63
1306,3.83,3.62
1308,3.80,3.60
1309,3.78,3.59
1310,3.77,3.59
1311,3.78,3.60
1312,3.79,3.61
1313,3.82,3.63
1314,3.85,3.65
1315,3.88,3.67
1317,3.91,3.68
1318,3.91,3.68
1319,3.90,3.66
1320,3.88,3.65
1321,3.87,3.64
1323,3.84,3.62
1324,3.82,3.61
1326,3.79,3.59
1327,3.77,3.59
1328,3.77,3.60
1329,3.78,3.60
1330,3.81,3.62
1331,3.84,3.64
1332,3.87,3.66
1333,3.90,3.68
1335,3.91,3.67
1336,3.90,3.67
1337,3.89,3.65
1338,3.87,3.64
1339,3.85,3.63
1340,3.82,3.60
1341,3.80,3.59
1342,3.77,3.59
1344,3.77,3.59
1345,3.77,3.60
1346,3.79,3.61
1347,3.82,3.63
1348,3.85,3.65
1349,3.89,3.67
1350,3.90,3.68
1351,3.91,3.67
1353,3.90,3.66
1354,3.88,3.65
1355,3.86,3.63
1356,3.83,3.62
1357,3.81,3.60
1358,3.78,3.59
1359,3.77,3.59
1360,3.77,3.59
1362,3.79,3.61
1363,3.81,3.62
1364,3.84,3.64
1366,3.87,3.67
1367,3.90,3.68
1368,3.91,3.68
1369,3.90,3.67
1371,3.89,3.65
1372,3.87,3.64
1373,3.85,3.62
1374,3.82,3.61
1375,3.79,3.59
1376,3.77,3.59
1377,3.77,3.59
1378,3.78,3.60
1380,3.80,3.61
1381,3.83,3.63
1382,3.86,3.66
1383,3.89,3.68
1384,3.91,3.68
1385,3.91,3.67
1386,3.90,3.66
1387,3.88,3.65
1389,3.86,3.64
1390,3.83,3.62
1391,3.81,3.60
1392,3.78,3.59
1393,3.77,3.60
1394,3.78,3.60
1395,3.79,3.61
1396,3.82,3.63
1398,3.85,3.65
1399,3.88,3.67
1400,3.91,3.68
1401,3.91,3.68
1402,3.91,3.67
1403,3.89,3.66
1404,3.87,3.64
1406,3.85,3.63
1408,3.82,3.61
1409,3.80,3.60
1410,3.78,3.59
1411,3.78,3.60
1412,3.79,3.61
1413,3.81,3.62
1414,3.84,3.64
1416,3.87,3.67
1417,3.90,3.68
1418,3.91,3.68
1419,3.91,3.67
1420,3.90,3.66
1421,3.88,3.65
1422,3.86,3.63
1423,3.83,3.61
1425,3.80,3.60
1426,3.78,3.59
1427,3.77,3.59
1428,3.78,3.60
1429,3.80,3.61
1430,3.82,3.63
1431,3.85,3.65
1432,3.88,3.67
1434,3.91,3.68
1435,3.91,3.67
1436,3.90,3.66
1437,3.88,3.65
1438,3.86,3.63
1439,3.84,3.62
1440,3.81,3.60
1441,3.79,3.59
1443,3.77,3.59
1444,3.77,3.59
1445,3.79,3.60
1446,3.81,3.62
1447,3.84,3.64
1448,3.87,3.67
1449,3.90,3.68
1451,3.91,3.68
1453,3.90,3.67
1454,3.89,3.66
1455,3.87,3.64
1456,3.85,3.63
1457,3.82,3.61
1458,3.80,3.59
1459,3.77,3.59
1461,3.77,3.59
1462,3.78,3.60
1463,3.80,3.61
1464,3.83,3.63
1465,3.86,3.65
1466,3.89,3.67
1467,3.91,3.68
1468,3.91,3.67
1470,3.89,3.66
1471,3.88,3.65
1472,3.86,3.63
1473,3.83,3.62
1474,3.81,3.60
1475,3.78,3.59
1476,3.77,3.59
1477,3.77,3.59
1479,3.79,3.61
1480,3.81,3.62
1481,3.84,3.64
1482,3.88,3.66
1483,3.90,3.68
1484,3.91,3.67
1485,3.90,3.66
1486,3.89,3.65
1488,3.87,3.64
1489,3.84,3.62
1490,3.82,3.61
1491,3.79,3.59
1492,3.77,3.59
1494,3.77,3.59
1495,3.78,3.60
1497,3.80,3.62
1498,3.83,3.64
1499,3.86,3.66
1500,3.89,3.68
1501,3.91,3.68
1502,3.91,3.67
1503,3.89,3.66
1504,3.88,3.64
1506,3.85,3.63
1507,3.83,3.62
1508,3.80,3.60
1509,3.78,3.59
1510,3.77,3.59
1511,3.78,3.60
1512,3.80,3.61
1513,3.82,3.63
1515,3.85,3.65
1516,3.88,3.67
1517,3.91,3.68
1518,3.91,3.67
1519,3.90,3.66
1520,3.88,3.65
1521,3.87,3.64
1522,3.84,3.62
1524,3.81,3.61
1525,3.79,3.59
1526,3.77,3.58
1527,3.77,3.59
1528,3.79,3.60
1529,3.81,3.62
1530,3.84,3.64
1532,3.87,3.66
1533,3.90,3.68
1534,3.91,3.67
1536,3.90,3.67
1537,3.89,3.65
1538,3.87,3.64
1539,3.85,3.63
1540,3.83,3.61
1542,3.80,3.59
1543,3.77,3.59
1544,3.77,3.59
1545,3.78,3.60
1546,3.80,3.61
1547,3.83,3.63
1548,3.86,3.65
1549,3.89,3.68
1551,3.91,3.68
1552,3.91,3.67
1553,3.90,3.66
1554,3.88,3.65
1555,3.86,3.63
1556,3.84,3.62
1557,3.81,3.60
1558,3.78,3.59
1560,3.77,3.59
1561,3.77,3.60
1562,3.79,3.61
1563,3.81,3.62
1564,3.84,3.64
1565,3.88,3.67
1566,3.90,3.68
1568,3.91,3.68
1569,3.90,3.67
1570,3.89,3.65
1571,3.87,3.64
1572,3.84,3.63
1573,3.82,3.61
1574,3.79,3.59
1575,3.77,3.59
1577,3.77,3.59
1579,3.78,3.60
1580,3.80,3.62
1581,3.83,3.63
1582,3.86,3.66
1583,3.89,3.67
1584,3.91,3.68
1585,3.91,3.67
1587,3.89,3.66
1588,3.88,3.65
1589,3.86,3.63
1590,3.83,3.62
1591,3.80,3.60
1592,3.78,3.59
1593,3.77,3.59
1594,3.77,3.59
1596,3.79,3.61
1597,3.82,3.63
1598,3.85,3.65
1599,3.88,3.67
1600,3.91,3.68
1601,3.91,3.67
1602,3.90,3.66
1604,3.89,3.65
1605,3.86,3.64
1606,3.84,3.62
1607,3.82,3.61
1608,3.79,3.59
1609,3.77,3.59
1610,3.77,3.59
1611,3.78,3.60
1613,3.81,3.62
1614,3.84,3.64
1615,3.87,3.66
1616,3.90,3.67
1617,3.91,3.67
1618,3.90,3.66
1619,3.88,3.65
1620,3.87,3.64
1623,3.84,3.62
1624,3.82,3.61
1625,3.79,3.59
1626,3.77,3.58
1627,3.76,3.58
1628,3.77,3.59
1629,3.79,3.61
1630,3.82,3.62
1632,3.85,3.64
1633,3.88,3.67
1634,3.90,3.67
1635,3.90,3.67
1636,3.89,3.66
1637,3.88,3.65
1638,3.86,3.63
1639,3.83,3.62
1641,3.81,3.60
1642,3.78,3.59
1643,3.77,3.58
1644,3.77,3.59
1645,3.78,3.60
1646,3.81,3.62
1647,3.84,3.64
1648,3.87,3.66
1650,3.90,3.68
1651,3.91,3.67
1652,3.90,3.67
1653,3.89,3.65
1654,3.87,3.64
1655,3.85,3.63
1656,3.82,3.61
1658,3.80,3.59
1659,3.77,3.59
1660,3.77,3.59
1661,3.78,3.60
1662,3.80,3.61
1664,3.83,3.63
1665,3.86,3.65
1666,3.89,3.67
1668,3.91,3.68
1669,3.91,3.67
1670,3.89,3.66
1671,3.88,3.65
1672,3.86,3.63
1673,3.83,3.62
1674,3.81,3.60
1675,3.78,3.58
1677,3.77,3.59
1678,3.77,3.59
1679,3.79,3.61
1680,3.82,3.62
1681,3.84,3.64
1682,3.88,3.67
1683,3.90,3.68
1684,3.91,3.67
1686,3.90,3.66
1687,3.89,3.65
1688,3.87,3.64
1689,3.84,3.62
1690,3.82,3.61
1691,3.79,3.59
1692,3.77,3.59
1694,3.77,3.59
1695,3.78,3.60
1696,3.80,3.62
1697,3.83,3.64
1698,3.86,3.66
1699,3.89,3.68
1700,3.91,3.68
1701,3.91,3.67
1703,3.90,3.66
1704,3.88,3.65
1705,3.86,3.63
1707,3.83,3.62
1708,3.81,3.60
1709,3.78,3.59
1710,3.77,3.59
1711,3.78,3.60
1713,3.80,3.61
1714,3.82,3.63
1715,3.85,3.65
1716,3.89,3.67
1717,3.91,3.68
1718,3.91,3.68
1719,3.90,3.66
1720,3.89,3.65
1722,3.87,3.64
1723,3.84,3.62
1724,3.82,3.61
1725,3.79,3.59
1726,3.77,3.59
1727,3.77,3.59
1728,3.79,3.60
1729,3.81,3.62
1731,3.84,3.64
1732,3.87,3.67
1733,3.90,3.68
1734,3.91,3.68
1735,3.90,3.67
1736,3.89,3.66
1737,3.87,3.64
1739,3.85,3.63
1740,3.82,3.61
1741,3.80,3.59
1742,3.77,3.59
1743,3.77,3.59
1744,3.78,3.60
1745,3.80,3.61
1746,3.83,3.63
1748,3.86,3.65
1750,3.89,3.68
1751,3.91,3.68
1752,3.91,3.67
1753,3.90,3.66
1754,3.88,3.65
1755,3.86,3.64
1756,3.84,3.62
1758,3.81,3.61
1759,3.79,3.59
1760,3.77,3.59
1761,3.78,3.60
1762,3.79,3.61
1763,3.82,3.62
1764,3.85,3.65
1765,3.88,3.67
1767,3.91,3.68
1768,3.91,3.68
1769,3.90,3.67
1770,3.89,3.65
1771,3.87,3.64
1772,3.85,3.63
1773,3.82,3.61
1775,3.79,3.59
1776,3.77,3.59
1777,3.77,3.59
1778,3.78,3.60
1779,3.80,3.62
1780,3.83,3.63
1781,3.86,3.66
1782,3.89,3.68
1784,3.91,3.68
1785,3.91,3.67
1786,3.89,3.66
1787,3.87,3.64
1788,3.85,3.63
1789,3.83,3.62
1790,3.80,3.60
1792,3.78,3.59
1794,3.77,3.59
1795,3.78,3.60
1796,3.79,3.61
1797,3.82,3.63
1798,3.85,3.65
1799,3.88,3.67
1800,3.90,3.68
1801,3.91,3.67
1803,3.90,3.66
1804,3.88,3.65
1805,3.87,3.64
1806,3.84,3.62
1807,3.82,3.61
1808,3.79,3.59
1809,3.77,3.59
1811,3.77,3.59
1812,3.78,3.60
1813,3.81,3.62
1814,3.84,3.64
1815,3.87,3.66
1816,3.90,3.68
1817,3.91,3.67
1818,3.91,3.67
1820,3.89,3.65
1821,3.87,3.64
1822,3.85,3.62
1823,3.82,3.61
1824,3.80,3.59
1825,3.77,3.59
1826,3.77,3.59
1827,3.78,3.60
1829,3.80,3.61
1830,3.82,3.63
1831,3.85,3.65
1832,3.89,3.67
1833,3.90,3.68
1835,3.91,3.67
1836,3.90,3.66
1837,3.88,3.64
1839,3.86,3.63
1840,3.84,3.62
1841,3.81,3.60
1842,3.79,3.59
1843,3.77,3.59
1844,3.77,3.59
1845,3.79,3.61
1846,3.81,3.62
1848,3.84,3.64
1849,3.87,3.67
1850,3.90,3.68
1851,3.91,3.68
1852,3.90,3.67
1853,3.89,3.65
1854,3.87,3.64
1855,3.85,3.63
1857,3.82,3.61
1858,3.80,3.59
1859,3.77,3.59
1860,3.77,3.59
1861,3.78,3.60
1862,3.80,3.61
1863,3.83,3.63
1865,3.86,3.66
1866,3.89,3.68
1867,3.91,3.68
1868,3.91,3.67
1869,3.89,3.66
1870,3.88,3.65
1871,3.86,3.63
1872,3.83,3.62
1874,3.81,3.60
1875,3.78,3.59
1876,3.77,3.59
1878,3.77,3.59
1879,3.79,3.61
1880,3.82,3.62
1881,3.85,3.64
1882,3.88,3.67
1884,3.90,3.68
1885,3.91,3.67
1886,3.90,3.66
1887,3.89,3.65
1888,3.86,3.64
1889,3.84,3.62
1890,3.82,3.61
1892,3.79,3.59
1893,3.77,3.59
1894,3.77,3.59
1895,3.78,3.60
1896,3.81,3.61
1897,3.83,3.63
1898,3.87,3.66
1899,3.90,3.68
1901,3.91,3.68
1902,3.90,3.67
1903,3.89,3.66
1904,3.87,3.64
1905,3.85,3.63
1906,3.83,3.61
1907,3.80,3.60
1908,3.78,3.59
1910,3.77,3.59
1911,3.78,3.59
1912,3.80,3.61
1913,3.82,3.63
1914,3.85,3.65
1915,3.89,3.67
1916,3.90,3.68
1917,3.91,3.67
1920,3.90,3.66
1921,3.88,3.65
1922,3.86,3.64
1923,3.84,3.62
1924,3.81,3.60
1925,3.79,3.59
1926,3.77,3.59
1928,3.77,3.59
1929,3.79,3.60
1930,3.81,3.62
1931,3.84,3.64
1932,3.87,3.66
1933,3.90,3.67
1934,3.91,3.67
1935,3.90,3.67
1937,3.89,3.65
1938,3.87,3.64
1939,3.85,3.63
1940,3.82,3.61
1941,3.80,3.59
1942,3.77,3.59
1943,3.77,3.59
1944,3.78,3.60
1946,3.80,3.61
1947,3.83,3.63
1948,3.86,3.65
1949,3.89,3.67
1950,3.91,3.68
1951,3.91,3.67
1952,3.90,3.66
1953,3.88,3.65
1955,3.86,3.63
1956,3.83,3.62
1957,3.81,3.60
1958,3.78,3.59
1959,3.77,3.59
1960,3.77,3.59
1961,3.79,3.61
1963,3.82,3.62
1965,3.85,3.64
1966,3.88,3.67
1967,3.90,3.68
1968,3.91,3.67
1969,3.90,3.66
1970,3.89,3.65
1971,3.87,3.64
1972,3.84,3.62
1974,3.82,3.61
1975,3.79,3.59
1976,3.77,3.59
1977,3.77,3.59
1978,3.78,3.60
1979,3.80,3.61
1980,3.83,3.63
1982,3.86,3.66
1983,3.89,3.67
1984,3.91,3.68
1985,3.90,3.67
1986,3.89,3.66
1987,3.88,3.64
1988,3.85,3.63
1989,3.83,3.61
1991,3.80,3.60
1992,3.78,3.59
1993,3.77,3.59
1994,3.77,3.59
1995,3.79,3.61
1996,3.82,3.63
1997,3.85,3.65
1998,3.88,3.67
2000,3.91,3.68
2001,3.91,3.67
2002,3.90,3.66
2003,3.88,3.65
2004,3.87,3.64
2006,3.84,3.62
2007,3.81,3.60
2008,3.79,3.59
2010,3.77,3.59
2011,3.77,3.59
2012,3.79,3.60
2013,3.81,3.62
2014,3.84,3.64
2015,3.87,3.67
2016,3.90,3.68
2018,3.91,3.68
2019,3.90,3.67
2020,3.89,3.65
2021,3.87,3.64
2022,3.85,3.63
2023,3.82,3.61
2024,3.80,3.59
2025,3.77,3.59
2027,3.77,3.59
2028,3.78,3.60
2029,3.80,3.61
2030,3.82,3.63
2031,3.86,3.65
2032,3.89,3.67
2033,3.91,3.68
2034,3.91,3.67
2036,3.90,3.66
2037,3.88,3.65
2038,3.86,3.63
2039,3.83,3.62
2040,3.81,3.60
2041,3.78,3.59
2042,3.77,3.59
2043,3.77,3.59
2045,3.79,3.60
2046,3.81,3.62
2048,3.84,3.64
2049,3.88,3.67
2050,3.90,3.68
2051,3.91,3.68
2052,3.90,3.66
2054,3.89,3.65
2055,3.87,3.64
2056,3.85,3.63
2057,3.82,3.61
2058,3.79,3.59
2059,3.77,3.59
2060,3.77,3.59
2061,3.78,3.60
2063,3.80,3.62
2064,3.83,3.63
2065,3.86,3.66
2066,3.89,3.68
2067,3.91,3.68
2068,3.91,3.67
2069,3.89,3.66
2070,3.88,3.64
2072,3.85,3.63
2073,3.83,3.61
2074,3.80,3.60
2075,3.78,3.59
2076,3.77,3.59
2077,3.77,3.59
2078,3.79,3.61
2079,3.82,3.63
2081,3.85,3.65
2082,3.88,3.67
2083,3.90,3.68
2084,3.91,3.67
2085,3.90,3.66
2086,3.88,3.65
2087,3.87,3.64
2089,3.84,3.62
2091,3.82,3.60
2092,3.79,3.59
2093,3.77,3.59
2094,3.77,3.59
2095,3.78,3.60
2096,3.81,3.62
2097,3.84,3.64
2099,3.87,3.66
2100,3.90,3.68
2101,3.91,3.68
2102,3.91,3.67
2103,3.89,3.65
2104,3.87,3.64
2105,3.85,3.63
2106,3.83,3.61
2108,3.80,3.60
2109,3.78,3.59
2110,3.77,3.59
2111,3.78,3.60
2112,3.80,3.61
2113,3.82,3.63
2114,3.85,3.65
2115,3.89,3.67
2117,3.91,3.68
2118,3.91,3.67
2119,3.90,3.66
2120,3.88,3.65
2121,3.86,3.64
2122,3.84,3.62
2123,3.81,3.60
2125,3.78,3.59
2126,3.77,3.59
2127,3.77,3.59
2128,3.79,3.60
2129,3.81,3.62
2130,3.84,3.64
2131,3.87,3.66
2132,3.90,3.68
2135,3.91,3.68
2136,3.90,3.67
2137,3.89,3.65
2138,3.87,3.64
2139,3.85,3.63
2140,3.82,3.61
2141,3.79,3.59
2142,3.77,3.59
2144,3.77,3.59
2145,3.78,3.60
2146,3.80,3.61
2147,3.83,3.63
2148,3.86,3.66
2149,3.89,3.67
2150,3.91,3.68
2151,3.91,3.67
2153,3.90,3.66
2154,3.88,3.65
2155,3.86,3.63
2156,3.83,3.62
2157,3.81,3.60
2158,3.78,3.59
2159,3.77,3.59
2161,3.78,3.60
2162,3.79,3.60
2163,3.82,3.62
2164,3.85,3.65
2165,3.88,3.67
2166,3.90,3.68
2167,3.91,3.67
2168,3.90,3.66
2170,3.88,3.65
2171,3.87,3.63
2172,3.84,3.62
2173,3.82,3.61
2174,3.79,3.59
2176,3.77,3.59
2177,3.77,3.59
2178,3.78,3.60
2180,3.81,3.62
2181,3.83,3.64
2182,3.86,3.66
2183,3.89,3.68
2184,3.91,3.67
2185,3.90,3.67
2186,3.89,3.65
2187,3.87,3.64
2189,3.85,3.63
2190,3.83,3.61
2191,3.80,3.59
2192,3.78,3.58
2193,3.77,3.59
2194,3.78,3.60
2195,3.80,3.61
2196,3.82,3.63
2198,3.85,3.65
2199,3.88,3.67
2200,3.90,3.68
2201,3.91,3.67
2202,3.90,3.66
2203,3.88,3.65
2204,3.86,3.64
2206,3.84,3.62
2207,3.81,3.61
2208,3.79,3.59
2209,3.77,3.59
2210,3.77,3.59
2211,3.79,3.60
2212,3.81,3.62
2213,3.84,3.64
2215,3.87,3.67
2216,3.90,3.68
2217,3.91,3.67
2219,3.90,3.66
2220,3.89,3.65
2221,3.87,3.64
2222,3.85,3.63
2223,3.82,3.61
2225,3.80,3.59
2226,3.77,3.59
2227,3.77,3.59
2228,3.78,3.60
2229,3.80,3.61
2230,3.82,3.63
2231,3.86,3.65
2232,3.89,3.67
2234,3.90,3.68
2235,3.90,3.67
2236,3.89,3.66
2237,3.88,3.65
2238,3.86,3.63
2239,3.83,3.62
2240,3.81,3.60
2242,3.78,3.59
2243,3.77,3.59
2244,3.77,3.59
2245,3.79,3.61
2246,3.81,3.62
2247,3.84,3.64
2248,3.88,3.67
2249,3.90,3.68
2251,3.91,3.67
2252,3.90,3.66
2253,3.89,3.65
2254,3.87,3.64
2255,3.84,3.63
2256,3.82,3.61
2257,3.79,3.59
2258,3.77,3.59
2260,3.77,3.59
2262,3.78,3.60
2263,3.81,3.62
2264,3.83,3.64
2265,3.87,3.66
2266,3.90,3.68
2267,3.91,3.68
2269,3.90,3.67
2270,3.89,3.66
2271,3.87,3.64
2272,3.85,3.63
2273,3.83,3.61
2274,3.80,3.59
2275,3.78,3.59
2276,3.77,3.59
2278,3.77,3.59
2279,3.79,3.61
2280,3.82,3.63
2281,3.85,3.65
2282,3.88,3.67
2283,3.91,3.68
2284,3.91,3.67
2285,3.90,3.66
2287,3.88,3.65
2288,3.86,3.63
2289,3.84,3.62
2290,3.81,3.60
2291,3.79,3.59
2292,3.77,3.59
2293,3.77,3.59
2294,3.79,3.61
2296,3.81,3.62
2297,3.84,3.64
2298,3.87,3.67
2299,3.90,3.68
2300,3.91,3.68
2301,3.90,3.67
2302,3.89,3.65
2305,3.87,3.64
2306,3.85,3.63
2307,3.82,3.61
2308,3.80,3.59
2309,3.77,3.59
2310,3.77,3.59
2311,3.78,3.60
2312,3.80,3.61
2314,3.83,3.63
2315,3.86,3.65
2316,3.89,3.67
2317,3.91,3.67
2318,3.91,3.67
2319,3.89,3.66
2320,3.88,3.65
2321,3.86,3.63
2323,3.83,3.62
2324,3.81,3.60
2325,3.78,3.58
2326,3.77,3.59
2327,3.77,3.59
2328,3.79,3.60
2329,3.81,3.62
2330,3.84,3.64
2332,3.87,3.67
2333,3.90,3.68
2334,3.91,3.67
2335,3.90,3.66
2336,3.89,3.65
2337,3.87,3.64
2338,3.84,3.62
2340,3.82,3.61
2341,3.79,3.59
2342,3.77,3.59
2343,3.77,3.59
2344,3.78,3.60
2345,3.80,3.62
2347,3.83,3.63
2348,3.86,3.66
2350,3.89,3.68
2351,3.91,3.68
2352,3.91,3.67
2353,3.89,3.66
2354,3.87,3.64
2355,3.85,3.63
2356,3.83,3.62
2357,3.80,3.60
2359,3.78,3.59
2360,3.77,3.59
2361,3.78,3.60
2362,3.79,3.61
2363,3.82,3.63
2364,3.85,3.65
2365,3.88,3.67
2366,3.90,3.68
2368,3.91,3.67
2369,3.90,3.66
2370,3.88,3.65
2371,3.86,3.64
2372,3.84,3.62
2373,3.81,3.60
2374,3.79,3.59
2376,3.77,3.59
2377,3.77,3.59
2378,3.78,3.60
2379,3.81,3.62
2380,3.84,3.64
2381,3.87,3.66
2382,3.90,3.68
2383,3.91,3.68
2385,3.90,3.67
2386,3.89,3.66
2387,3.87,3.65
2388,3.85,3.63
2390,3.83,3.61
2391,3.80,3.60
2392,3.78,3.59
2393,3.77,3.59
2395,3.78,3.60
2396,3.80,3.61
2397,3.83,3.63
2398,3.86,3.66
2399,3.89,3.68
2400,3.91,3.68
2401,3.91,3.67
2403,3.90,3.66
2404,3.88,3.65
2405,3.86,3.64
2406,3.84,3.62
2407,3.81,3.60
2408,3.78,3.59
2409,3.77,3.59
2410,3.77,3.60
2412,3.79,3.61
2413,3.82,3.62
2414,3.85,3.64
2415,3.88,3.67
2416,3.90,3.68
2417,3.91,3.68
2418,3.90,3.66
2419,3.89,3.65
2421,3.87,3.64
2422,3.84,3.62
2423,3.82,3.61
2424,3.79,3.59
2425,3.77,3.59
2426,3.77,3.59
2427,3.78,3.60
2428,3.80,3.62
2430,3.83,3.63
2432,3.86,3.66
2433,3.89,3.68
2434,3.91,3.68
2435,3.91,3.67
2436,3.89,3.66
2437,3.87,3.65
2439,3.85,3.63
2440,3.83,3.61
2441,3.80,3.60
2442,3.78,3.59
2443,3.77,3.59
2444,3.78,3.60
2445,3.80,3.61
2446,3.82,3.63
2448,3.85,3.65
2449,3.88,3.67
2450,3.91,3.68
2451,3.91,3.67
2452,3.90,3.66
2453,3.89,3.65
2454,3.87,3.64
2455,3.84,3.62
2457,3.82,3.60
2458,3.79,3.59
2459,3.77,3.59
2460,3.77,3.59
2461,3.79,3.60
2462,3.81,3.62
2463,3.84,3.64
2464,3.87,3.66
2466,3.90,3.68
2467,3.91,3.68
2468,3.90,3.67
2469,3.89,3.65
2470,3.87,3.64
2471,3.85,3.62
2472,3.82,3.61
2475,3.80,3.59
2476,3.77,3.59
2477,3.77,3.59
2478,3.78,3.59
2479,3.80,3.61
2480,3.82,3.63
2481,3.85,3.65
2482,3.89,3.67
2484,3.90,3.68
2485,3.91,3.67
2486,3.90,3.66
2487,3.88,3.64
2488,3.86,3.63
2489,3.83,3.62
2490,3.81,3.60
2491,3.78,3.59
2493,3.77,3.59
2494,3.77,3.59
2495,3.79,3.60
2496,3.81,3.62
2497,3.84,3.64
2498,3.87,3.67
2499,3.90,3.68
2500,3.91,3.68
2502,3.90,3.66
2503,3.89,3.65
2504,3.87,3.64
2505,3.85,3.63
2506,3.82,3.61
2507,3.80,3.59
2508,3.77,3.59
2509,3.77,3.59
2511,3.78,3.60
2512,3.80,3.61
2513,3.83,3.63
2514,3.86,3.66
2515,3.89,3.67
2516,3.91,3.67
2518,3.90,3.67
2519,3.89,3.66
2521,3.88,3.64
2522,3.86,3.63
2523,3.83,3.61
2524,3.80,3.60
2525,3.78,3.59
2526,3.77,3.59
2527,3.77,3.59
2528,3.79,3.60
2530,3.81,3.62
2531,3.84,3.64
2532,3.88,3.67
2533,3.90,3.68
2534,3.91,3.67
2535,3.90,3.66
2536,3.89,3.65
2538,3.86,3.64
2539,3.84,3.62
2540,3.81,3.61
2541,3.79,3.59
2542,3.77,3.59
2543,3.77,3.59
2544,3.78,3.60
2545,3.80,3.61
2547,3.83,3.63
2548,3.86,3.66
2549,3.89,3.67
2550,3.91,3.68
2551,3.90,3.67
2552,3.89,3.66
2553,3.87,3.64
2554,3.85,3.63
2556,3.83,3.61
2557,3.80,3.60
2558,3.78,3.59
2560,3.77,3.59
2561,3.78,3.60
2562,3.79,3.61
2563,3.82,3.63
2564,3.85,3.65
2566,3.88,3.67
2567,3.90,3.68
2568,3.91,3.67
2569,3.89,3.66
2570,3.88,3.65
2571,3.86,3.63
2572,3.84,3.63
2574,3.81,3.60
2575,3.78,3.59
2576,3.77,3.59
2577,3.77,3.59
2578,3.78,3.60
2579,3.81,3.62
2580,3.84,3.64
2581,3.87,3.66
2583,3.90,3.67
2584,3.91,3.67
2585,3.90,3.67
2586,3.89,3.65
2587,3.87,3.64
2588,3.85,3.63
2589,3.82,3.61
2590,3.80,3.59
2592,3.77,3.59
2593,3.77,3.59
2594,3.78,3.60
2595,3.80,3.61
2596,3.83,3.63
2597,3.86,3.65
2598,3.89,3.68
2599,3.91,3.68
2601,3.91,3.67
2603,3.90,3.66
2604,3.88,3.65
2605,3.86,3.63
2606,3.83,3.62
2607,3.81,3.60
2608,3.78,3.59
2610,3.77,3.59
2611,3.77,3.59
2612,3.79,3.61
2613,3.81,3.63
2614,3.85,3.64
2615,3.88,3.67
2616,3.90,3.68
2617,3.91,3.68
2619,3.90,3.66
2620,3.88,3.65
2621,3.87,3.64
2622,3.84,3.62
2623,3.82,3.61
2624,3.79,3.59
2625,3.77,3.59
2626,3.77,3.59
2628,3.78,3.60
2629,3.80,3.61
2630,3.83,3.63
2631,3.86,3.66
2632,3.89,3.67
2633,3.91,3.68
2634,3.90,3.67
2635,3.89,3.65
2637,3.87,3.64
2638,3.85,3.63
2639,3.83,3.61
2640,3.80,3.60
2641,3.78,3.59
2642,3.77,3.59
2643,3.77,3.59
2644,3.79,3.61
2647,3.82,3.63
2648,3.85,3.65
2649,3.88,3.67
2650,3.90,3.68
2651,3.91,3.67
2652,3.90,3.66
2653,3.88,3.65
2654,3.86,3.64
2656,3.84,3.62
2657,3.81,3.60
2658,3.79,3.59
2659,3.77,3.59
2660,3.77,3.59
2661,3.78,3.60
2662,3.81,3.62
2664,3.84,3.64
2665,3.87,3.66
2666,3.89,3.68
2667,3.91,3.67
2668,3.90,3.67
2669,3.89,3.65
2670,3.87,3.65
2671,3.85,3.62
2673,3.82,3.61
2674,3.80,3.59
2675,3.77,3.59
2676,3.76,3.59
2677,3.77,3.59
2678,3.79,3.61
2679,3.82,3.63
2680,3.85,3.65
2682,3.88,3.67
2683,3.90,3.68
2684,3.91,3.67
2685,3.89,3.66
2686,3.88,3.65
2688,3.86,3.63
2689,3.83,3.62
2691,3.81,3.60
2692,3.78,3.59
2693,3.77,3.59
2694,3.77,3.59
2695,3.79,3.61
2696,3.81,3.62
2697,3.84,3.64
2698,3.87,3.67
2700,3.90,3.68
2701,3.91,3.67
2702,3.90,3.66
2703,3.88,3.65
2704,3.86,3.64
2705,3.84,3.62
2706,3.82,3.61
2707,3.79,3.59
2709,3.77,3.58
2710,3.76,3.59
2711,3.78,3.59
2712,3.80,3.61
2713,3.83,3.63
2714,3.86,3.66
2715,3.89,3.67
2716,3.90,3.67
2718,3.90,3.67
2719,3.89,3.65
2720,3.87,3.64
2721,3.85,3.63
2722,3.83,3.61
2723,3.80,3.60
2724,3.77,3.58
2725,3.76,3.58
2727,3.77,3.59
2728,3.79,3.60
2729,3.81,3.62
2731,3.84,3.64
2732,3.87,3.67
2733,3.90,3.67
2734,3.90,3.67
2735,3.90,3.66
2737,3.88,3.65
2738,3.86,3.64
2739,3.84,3.62
2740,3.81,3.60
2741,3.79,3.59
2742,3.77,3.58
2743,3.77,3.59
2744,3.78,3.60
2746,3.80,3.61
2747,3.83,3.64
2748,3.86,3.66
2749,3.89,3.68
2750,3.91,3.68
2751,3.90,3.67
2752,3.89,3.66
2754,3.87,3.64
2755,3.85,3.63
2756,3.83,3.61
2757,3.80,3.60
2758,3.78,3.59
2759,3.77,3.59
2760,3.78,3.59
2761,3.79,3.61
2763,3.82,3.63
2764,3.85,3.65
2765,3.88,3.67
2766,3.91,3.68
2767,3.91,3.68
2768,3.90,3.67
2769,3.89,3.65
2770,3.87,3.64
2772,3.84,3.63
2774,3.82,3.61
2775,3.79,3.59
2776,3.78,3.60
2777,3.78,3.60
2778,3.79,3.61
2779,3.81,3.62
2780,3.84,3.64
2782,3.88,3.67
2783,3.90,3.68
2784,3.91,3.68
2785,3.91,3.67
2786,3.89,3.66
2787,3.88,3.65
2788,3.85,3.63
2790,3.83,3.61
2791,3.80,3.60
2792,3.78,3.59
2793,3.77,3.59
2794,3.78,3.60
2795,3.80,3.62
2796,3.83,3.63
2797,3.86,3.66
2799,3.89,3.68
2800,3.91,3.68
2801,3.91,3.67
2802,3.90,3.66
2803,3.88,3.65
2804,3.86,3.63
2805,3.83,3.62
2806,3.81,3.60
2808,3.78,3.59
2809,3.77,3.59
2810,3.77,3.59
2811,3.79,3.61
2812,3.82,3.62
2813,3.85,3.65
2814,3.88,3.67
2817,3.90,3.68
2818,3.91,3.67
2819,3.90,3.66
2820,3.88,3.65
2821,3.86,3.64
2822,3.84,3.62
2823,3.81,3.61
2824,3.79,3.59
2826,3.77,3.58
2827,3.77,3.58
2828,3.78,3.60
2829,3.80,3.61
2830,3.83,3.63
2831,3.86,3.66
2832,3.89,3.67
2833,3.90,3.67
2835,3.90,3.67
2836,3.89,3.65
2837,3.87,3.64
2838,3.85,3.63
2839,3.83,3.61
2840,3.80,3.60
2841,3.78,3.59
2842,3.77,3.59
2844,3.77,3.59
2845,3.79,3.61
2846,3.82,3.63
2847,3.85,3.65
2848,3.88,3.67
2849,3.90,3.68
2850,3.91,3.67
2851,3.90,3.66
2853,3.88,3.65
2854,3.86,3.64
2855,3.84,3.62
2856,3.81,3.60
2857,3.79,3.59
2859,3.77,3.59
2860,3.77,3.59
2862,3.78,3.60
2863,3.81,3.62
2864,3.84,3.64
2865,3.87,3.66
2866,3.90,3.67
2867,3.91,3.67
2868,3.90,3.66
2869,3.89,3.65
2871,3.87,3.64
2872,3.85,3.63
2873,3.82,3.61
2874,3.79,3.59
2875,3.77,3.58
2876,3.77,3.59
2877,3.77,3.59
2878,3.79,3.61
2880,3.82,3.63
2881,3.85,3.65
2882,3.89,3.67
2883,3.90,3.67
2884,3.90,3.67
2885,3.89,3.66
2886,3.88,3.64
2887,3.86,3.63
2889,3.83,3.62
2890,3.81,3.60
2891,3.78,3.59
2892,3.77,3.59
2893,3.77,3.59
2894,3.79,3.61
2895,3.81,3.62
2896,3.84,3.64
2898,3.87,3.67
2899,3.90,3.68
2900,3.91,3.67
2902,3.90,3.67
2903,3.89,3.65
2904,3.87,3.64
2905,3.84,3.62
2907,3.82,3.61
2908,3.79,3.59
2909,3.77,3.59
2910,3.77,3.59
2911,3.78,3.60
2912,3.80,3.62
2913,3.83,3.63
2914,3.86,3.66
2916,3.89,3.67
2917,3.90,3.67
2918,3.90,3.67
2919,3.89,3.66
2920,3.87,3.64
2921,3.85,3.63
2922,3.83,3.61
2923,3.80,3.59
2925,3.78,3.58
2926,3.77,3.58
2927,3.77,3.59
2928,3.79,3.61
2929,3.81,3.62
2930,3.84,3.64
2931,3.88,3.67
2932,3.90,3.67
2934,3.91,3.67
2935,3.90,3.66
2936,3.88,3.65
2937,3.86,3.64
2938,3.84,3.62
2939,3.81,3.60
2940,3.79,3.59
2941,3.77,3.59
2944,3.77,3.59
2945,3.78,3.60
2946,3.80,3.62
2947,3.83,3.64
2948,3.86,3.66
2949,3.89,3.68
2950,3.91,3.68
2952,3.90,3.67
2953,3.89,3.66
2954,3.87,3.65
2955,3.85,3.63
2956,3.83,3.61
2957,3.80,3.60
2958,3.78,3.59
2959,3.77,3.59
2961,3.78,3.60
2962,3.80,3.61
2963,3.82,3.63
2964,3.85,3.65
2965,3.89,3.67
2966,3.91,3.68
2967,3.90,3.67
2968,3.90,3.66
2970,3.88,3.65
2971,3.86,3.63
2972,3.83,3.62
2973,3.81,3.60
2974,3.78,3.58
2975,3.77,3.58
2976,3.77,3.59
2977,3.78,3.60
2979,3.81,3.62
2980,3.84,3.64
2981,3.87,3.66
2982,3.90,3.68
2983,3.90,3.67
2984,3.90,3.66
2985,3.88,3.65
2988,3.86,3.64
2989,3.84,3.62
2990,3.82,3.61
2991,3.79,3.59
2992,3.77,3.58
2993,3.76,3.58
2994,3.77,3.59
2995,3.80,3.61
2997,3.82,3.63
2998,3.85,3.65
2999,3.89,3.67
3000,3.90,3.67
3001,3.90,3.67
3002,3.89,3.66
3003,3.88,3.64
3004,3.85,3.63
3006,3.83,3.61
3007,3.80,3.60
3008,3.78,3.59
3009,3.77,3.59
3010,3.77,3.59
3011,3.79,3.60
3012,3.81,3.62
3013,3.84,3.64
3015,3.88,3.67
3016,3.90,3.68
3017,3.90,3.67
3018,3.90,3.66
3019,3.88,3.65
3020,3.86,3.64
3021,3.84,3.62
3022,3.81,3.60
3024,3.79,3.59
3025,3.77,3.58
3026,3.77,3.59
3027,3.78,3.60
3028,3.80,3.61
3030,3.83,3.63
3031,3.86,3.66
3032,3.89,3.67
3034,3.90,3.67
3035,3.90,3.67
3036,3.89,3.65
3037,3.87,3.64
3038,3.85,3.63
3039,3.83,3.61
3040,3.80,3.60
3041,3.78,3.58
3043,3.77,3.59
3044,3.77,3.59
3045,3.79,3.61
3046,3.82,3.63
3047,3.85,3.65
3048,3.88,3.67
3049,3.90,3.68
3051,3.91,3.67
3052,3.90,3.66
3053,3.88,3.65
3054,3.86,3.64
3055,3.84,3.62
3056,3.81,3.61
3057,3.79,3.59
3058,3.77,3.59
3060,3.77,3.59
3061,3.78,3.60
3062,3.81,3.62
3063,3.83,3.64
3064,3.87,3.66
3065,3.89,3.67
3066,3.91,3.67
3067,3.90,3.66
3069,3.89,3.65
3070,3.87,3.64
3072,3.85,3.63
3073,3.82,3.61
3074,3.80,3.59
3075,3.77,3.58
3076,3.76,3.58
3077,3.77,3.59
3079,3.79,3.61
3080,3.82,3.62
3081,3.85,3.65
3082,3.88,3.67
3083,3.90,3.67
3084,3.90,3.66
3085,3.89,3.65
3087,3.87,3.64
3088,3.85,3.63
3089,3.83,3.61
3090,3.80,3.59
3091,3.77,3.58
3092,3.76,3.58
3093,3.76,3.58
3094,3.77,3.59
3096,3.80,3.61
3097,3.83,3.63
3098,3.86,3.66
3099,3.89,3.67
3100,3.89,3.67
3101,3.89,3.66
3102,3.87,3.64
3103,3.85,3.63
3105,3.83,3.61
3106,3.80,3.60
3107,3.78,3.58
3108,3.76,3.57
3109,3.75,3.58
3110,3.76,3.59
3111,3.79,3.60
3112,3.81,3.62
3115,3.84,3.65
3116,3.88,3.67
3117,3.89,3.67
3118,3.89,3.66
3119,3.88,3.65
3120,3.86,3.64
3121,3.84,3.62
3123,3.82,3.61
3124,3.79,3.59
3125,3.77,3.58
3126,3.75,3.58
3127,3.76,3.59
3128,3.78,3.60
3129,3.80,3.62
3130,3.84,3.64
3132,3.87,3.66
3133,3.89,3.67
3134,3.89,3.66
3135,3.89,3.65
3136,3.87,3.64
3137,3.85,3.63
3138,3.83,3.61
3139,3.80,3.60
3141,3.78,3.58
3142,3.76,3.58
3143,3.75,3.58
3144,3.77,3.59
3145,3.79,3.60
3146,3.82,3.63
3147,3.85,3.65
3148,3.88,3.66
3150,3.89,3.66
3151,3.89,3.66
3152,3.87,3.64
3153,3.86,3.63
3154,3.83,3.62
3155,3.81,3.60
3156,3.79,3.59
3158,3.76,3.57
3160,3.75,3.58
3161,3.76,3.58
3162,3.78,3.60
3163,3.81,3.62
3164,3.84,3.64
3165,3.87,3.66
3166,3.89,3.67
3167,3.89,3.66
3169,3.88,3.65
3170,3.87,3.64
3171,3.84,3.62
3172,3.82,3.61
3173,3.80,3.59
3174,3.77,3.58
3175,3.75,3.57
3177,3.75,3.58
3178,3.77,3.59
3179,3.79,3.61
3180,3.82,3.63
3181,3.86,3.65
3182,3.88,3.67
3183,3.89,3.66
3184,3.89,3.65
3186,3.87,3.64
3187,3.86,3.63
3188,3.83,3.62
3189,3.81,3.60
3190,3.78,3.59
3191,3.76,3.58
3192,3.75,3.58
3193,3.76,3.59
3195,3.78,3.60
3196,3.81,3.62
3197,3.84,3.65
3198,3.87,3.67
3200,3.89,3.67
3201,3.89,3.66
3202,3.88,3.65
3204,3.86,3.63
3205,3.84,3.62
3206,3.82,3.61
3207,3.79,3.59
3208,3.77,3.58
3209,3.75,3.58
3210,3.76,3.58
3211,3.78,3.59
3213,3.80,3.61
3214,3.83,3.64
3215,3.87,3.66
3216,3.89,3.67
3217,3.89,3.66
3218,3.89,3.65
3219,3.87,3.63
3220,3.85,3.63
3222,3.83,3.61
3223,3.80,3.60
3224,3.78,3.58
3225,3.76,3.58
3226,3.76,3.57
3227,3.77,3.59
3228,3.79,3.60
3229,3.82,3.62
3231,3.85,3.65
3232,3.88,3.67
3233,3.89,3.66
3234,3.89,3.66
3235,3.88,3.64
3236,3.86,3.63
3237,3.84,3.62
3238,3.81,3.60
3240,3.79,3.59
3241,3.76,3.58
3243,3.75,3.58
3244,3.76,3.57
3245,3.78,3.60
3246,3.81,3.61
3247,3.83,3.64
3249,3.87,3.66
3250,3.89,3.67
3251,3.89,3.66
3252,3.88,3.65
3253,3.87,3.64
3254,3.85,3.62
3255,3.82,3.61
3256,3.80,3.60
3258,3.77,3.58
3259,3.75,3.58
3260,3.76,3.58
3261,3.77,3.59
3262,3.79,3.61
3263,3.82,3.63
3264,3.86,3.65
3265,3.88,3.67
3267,3.89,3.66
3268,3.89,3.66
3269,3.88,3.64
3270,3.86,3.63
3271,3.84,3.62
3272,3.81,3.60
3273,3.79,3.59
3274,3.76,3.58
3276,3.76,3.58
3277,3.77,3.59
3278,3.79,3.60
3279,3.81,3.62
3280,3.85,3.64
3281,3.88,3.67
3282,3.90,3.67
3283,3.90,3.66
3286,3.89,3.65
3287,3.88,3.65
3288,3.86,3.63
3289,3.83,3.61
3290,3.81,3.60
3291,3.78,3.58
3292,3.77,3.58
3293,3.77,3.58
3295,3.78,3.60
3296,3.81,3.62
3297,3.84,3.64
3298,3.87,3.66
3299,3.90,3.67
3300,3.91,3.67
3301,3.90,3.67
3302,3.89,3.65
3304,3.87,3.64
3305,3.85,3.62
3306,3.82,3.61
3307,3.80,3.59
3308,3.77,3.58
3309,3.77,3.59
3310,3.78,3.60
3311,3.80,3.61
3313,3.83,3.63
3314,3.86,3.65
3315,3.89,3.67
3316,3.91,3.67
3317,3.91,3.67
3318,3.89,3.65
3319,3.88,3.64
3321,3.85,3.63
3322,3.83,3.61
3323,3.80,3.60
3324,3.78,3.58
3325,3.77,3.59
3326,3.77,3.59
3328,3.79,3.60
3329,3.81,3.62
3331,3.85,3.64
3332,3.88,3.67
3333,3.91,3.68
3334,3.91,3.67
3335,3.91,3.67
3336,3.90,3.66
3337,3.88,3.64
3338,3.86,3.63
3340,3.83,3.61
3341,3.81,3.60
3342,3.79,3.60
3343,3.79,3.60
3344,3.81,3.61
3345,3.83,3.62
3346,3.85,3.64
3347,3.89,3.67
3349,3.92,3.69
3350,3.94,3.70
3351,3.94,3.69
3352,3.93,3.68
3353,3.91,3.67
3354,3.90,3.66
3355,3.87,3.64
3356,3.85,3.62
3358,3.82,3.62
3359,3.82,3.62
3360,3.82,3.63
3361,3.84,3.64
3362,3.87,3.65
3363,3.90,3.67
3364,3.93,3.69
3366,3.96,3.71
3367,4.00,3.74
3368,4.03,3.76
3369,4.07,3.78
3371,4.11,3.80
3372,4.14,3.82
3373,4.18,3.85
3374,4.21,3.87
3376,4.25,3.88
3377,4.28,3.90
3378,4.31,3.91
3379,4.34,3.93
3380,4.36,3.94
3381,4.39,3.96
3382,4.42,3.97
3383,4.44,3.99
3385,4.46,4.00
3386,4.49,4.02
3387,4.51,4.03
3388,4.53,4.04
3389,4.55,4.05
3390,4.56,4.06
3391,4.57,4.07
3392,4.59,4.08
3394,4.60,4.09
3395,4.61,4.09
3396,4.61,4.10
3397,4.62,4.10
3398,4.63,4.11
3399,4.63,4.11
3400,4.64,4.11
3401,4.64,4.11
3403,4.64,4.12
3404,4.64,4.12
3405,4.64,4.12
3406,4.64,4.12
3407,4.64,4.12
3408,4.64,4.12
3409,4.64,4.12
3411,4.63,4.12
3412,4.63,4.12
3414,4.63,4.12
3415,4.62,4.12
3416,4.62,4.12
3417,4.61,4.11
3418,4.61,4.11
3420,4.61,4.11
3421,4.60,4.11
3422,4.60,4.11
3423,4.59,4.11
3424,4.59,4.11
3425,4.59,4.11
3426,4.58,4.10
3427,4.58,4.10
3429,4.58,4.10
3430,4.57,4.10
3431,4.57,4.10
3432,4.57,4.10
3433,4.57,4.10
3434,4.56,4.09
3435,4.56,4.09
3436,4.56,4.09
3438,4.56,4.09
3439,4.56,4.09
3440,4.56,4.09
3441,4.55,4.09
3442,4.55,4.09
3443,4.55,4.09
3444,4.55,4.09
3445,4.55,4.09
3447,4.54,4.09
3448,4.54,4.09
3449,4.54,4.09
3450,4.54,4.09
3451,4.54,4.09
3452,4.54,4.09
3453,4.54,4.09
3454,4.54,4.09
3457,4.54,4.09
3458,4.54,4.09
3459,4.54,4.09
3460,4.54,4.09
3461,4.54,4.09
3462,4.54,4.09
3463,4.54,4.09
3464,4.54,4.09
3465,4.54,4.09
3467,4.54,4.09
3468,4.54,4.09
3469,4.54,4.09
3470,4.54,4.09
3471,4.54,4.09
3472,4.54,4.09
3473,4.54,4.09
3474,4.54,4.09
3476,4.54,4.09
3477,4.54,4.09
3478,4.54,4.09
3479,4.54,4.09
3480,4.54,4.09
3481,4.54,4.09
3482,4.54,4.10
3483,4.55,4.09
3484,4.55,4.10
3486,4.55,4.10
3487,4.55,4.10
3488,4.55,4.10
3489,4.55,4.10
3490,4.55,4.10
3491,4.55,4.10
3492,4.55,4.10
3493,4.55,4.10
3495,4.55,4.10
3496,4.55,4.10
3497,4.55,4.10
3499,4.55,4.10
3500,4.55,4.10
3501,4.55,4.10
3502,4.55,4.10
3503,4.55,4.10
3505,4.55,4.10
3506,4.55,4.10
3507,4.55,4.10
3508,4.55,4.10
3509,4.55,4.10
3510,4.55,4.10
3511,4.55,4.10
3512,4.55,4.10
3514,4.55,4.10
3515,4.55,4.10
3516,4.55,4.10
3517,4.55,4.10
3518,4.55,4.10
3519,4.55,4.10
3520,4.55,4.10
3521,4.55,4.10
3523,4.55,4.10
3524,4.54,4.10
3525,4.55,4.10
3526,4.55,4.10
3527,4.55,4.10
3528,4.54,4.10
3529,4.55,4.10
3530,4.55,4.10
3532,4.55,4.10
3533,4.55,4.10
3534,4.54,4.11
3535,4.54,4.10
3536,4.55,4.10
3537,4.54,4.10
3538,4.55,4.10
3539,4.54,4.10
3542,4.54,4.10
3543,4.55,4.10
3544,4.54,4.10
3545,4.55,4.10
3546,4.54,4.10
3547,4.55,4.10
3548,4.54,4.10
3549,4.54,4.10
3551,4.55,4.10
3552,4.54,4.10
3553,4.54,4.10
3554,4.55,4.10
3555,4.54,4.10
3556,4.55,4.10
3557,4.54,4.10
3558,4.54,4.10
3560,4.54,4.10
3561,4.55,4.10
3562,4.54,4.10
3563,4.55,4.10
3564,4.54,4.10
3565,4.55,4.10
3566,4.54,4.10
3567,4.54,4.10
3569,4.55,4.10
3570,4.54,4.10
3571,4.55,4.10
3572,4.54,4.10
3573,4.55,4.10
3574,4.55,4.10
3575,4.55,4.10
3576,4.55,4.10
3578,4.55,4.10
3579,4.55,4.10
3580,4.55,4.10
3581,4.55,4.10
3582,4.55,4.10
3584,4.55,4.10
3585,4.55,4.10
3586,4.55,4.10
3588,4.55,4.10
3589,4.55,4.10
3590,4.55,4.10
3591,4.55,4.10
3592,4.54,4.10
3593,4.55,4.10
3594,4.55,4.10
3595,4.55,4.10
3597,4.55,4.10
3598,4.54,4.10
3599,4.55,4.10
3600,4.55,4.10
3601,4.55,4.10
3602,4.55,4.10
3603,4.55,4.10
3604,4.55,4.10
3606,4.55,4.10
3607,4.55,4.10
3608,4.55,4.10
3609,4.54,4.10
3610,4.55,4.10
3611,4.54,4.10
3612,4.55,4.10
3613,4.54,4.10
3615,4.54,4.10
3616,4.54,4.10
3617,4.54,4.10
3618,4.54,4.10
3619,4.55,4.10
3620,4.54,4.10
3621,4.54,4.10
3622,4.54,4.10
3624,4.54,4.10
3625,4.54,4.10
3627,4.54,4.10
3628,4.54,4.10
3629,4.55,4.10
3630,4.54,4.10
3631,4.55,4.10
3632,4.55,4.10
3634,4.55,4.10
3635,4.54,4.10
3636,4.54,4.10
3637,4.55,4.10
3638,4.55,4.10
3639,4.54,4.10
3640,4.54,4.10
3641,4.54,4.10
3643,4.55,4.10
3644,4.55,4.10
3645,4.55,4.10
3646,4.54,4.10
3647,4.54,4.10
3648,4.54,4.10
3649,4.55,4.10
3650,4.55,4.10
3652,4.55,4.10
3653,4.54,4.10
3654,4.55,4.10
3655,4.54,4.10
3656,4.55,4.10
3657,4.55,4.10
3658,4.55,4.10
3659,4.55,4.11
3661,4.55,4.11
3662,4.55,4.10
3663,4.54,4.11
3664,4.55,4.11
3665,4.55,4.11
3666,4.55,4.11
3667,4.54,4.11
3670,4.55,4.11
3671,4.54,4.11
3672,4.54,4.11
3673,4.55,4.11
3674,4.55,4.11
3675,4.55,4.11
3676,4.54,4.11
3677,4.55,4.11
3679,4.55,4.11
3680,4.55,4.11
3681,4.55,4.11
3682,4.55,4.11
3683,4.55,4.11
3684,4.54,4.11
3685,4.55,4.11
3686,4.55,4.11
3688,4.55,4.11
3689,4.55,4.11
3690,4.54,4.11
3691,4.54,4.12
3692,4.54,4.12
3693,4.54,4.12
3694,4.54,4.12
3696,4.54,4.12
3697,4.54,4.12
3698,4.54,4.12
3699,4.54,4.12
3700,4.54,4.12
3701,4.54,4.12
3702,4.54,4.12
3704,4.54,4.12
3705,4.54,4.12
3706,4.54,4.12
3707,4.54,4.12
3708,4.54,4.12
3709,4.54,4.12
3710,4.54,4.12
3713,4.54,4.12
3714,4.54,4.12
3715,4.54,4.12
3716,4.54,4.12
3717,4.54,4.12
3718,4.54,4.12
3719,4.54,4.12
3720,4.54,4.12
3722,4.54,4.12
3723,4.54,4.12
3724,4.54,4.13
3725,4.54,4.12
3726,4.54,4.12
3727,4.54,4.12
3728,4.54,4.13
3729,4.54,4.13
3731,4.54,4.13
3732,4.54,4.13
3733,4.54,4.13
3734,4.54,4.13
3735,4.54,4.13
3736,4.54,4.13
3737,4.54,4.13
3739,4.54,4.13
3740,4.54,4.13
3741,4.54,4.13
3742,4.54,4.13
3743,4.54,4.13
3744,4.54,4.13
3745,4.54,4.13
3746,4.54,4.13
3748,4.54,4.13
3749,4.54,4.13
3750,4.54,4.13
3751,4.54,4.13
3752,4.54,4.13
3753,4.54,4.13
3755,4.54,4.13
3756,4.54,4.13
3758,4.54,4.14
3759,4.54,4.14
3760,4.54,4.14
3761,4.54,4.14
3762,4.54,4.14
3763,4.54,4.14
3764,4.54,4.14
3765,4.54,4.14
3767,4.54,4.14
3768,4.54,4.14
3769,4.54,4.14
3770,4.54,4.14
3771,4.54,4.14
3772,4.54,4.14
3773,4.54,4.14
3774,4.54,4.14
3776,4.54,4.14
3777,4.54,4.15
3778,4.54,4.15
3779,4.54,4.15
3780,4.54,4.15
3781,4.54,4.15
3782,4.54,4.15
3783,4.54,4.15
3785,4.54,4.15
3786,4.54,4.15
3787,4.54,4.15
3788,4.54,4.15
3789,4.54,4.15
3790,4.54,4.15
3791,4.54,4.15
3792,4.54,4.15
3794,4.54,4.15
3795,4.54,4.15
3796,4.54,4.15
3798,4.54,4.15
3799,4.54,4.15
3800,4.54,4.15
3801,4.54,4.15
3802,4.54,4.16
3804,4.54,4.16
3805,4.54,4.16
3806,4.54,4.16
3807,4.54,4.16
3808,4.54,4.16
3809,4.54,4.16
3810,4.54,4.16
3811,4.54,4.16
3813,4.54,4.16
3814,4.54,4.16
3815,4.54,4.16
3816,4.54,4.16
3817,4.54,4.17
3818,4.54,4.17
3819,4.54,4.17
3820,4.54,4.17
3822,4.54,4.17
3823,4.54,4.17
3824,4.54,4.17
3825,4.54,4.17
3826,4.54,4.17
3827,4.54,4.17
3828,4.54,4.17
3829,4.54,4.17
3831,4.54,4.17
3832,4.54,4.17
3833,4.54,4.17
3834,4.54,4.17
3835,4.54,4.17
3836,4.54,4.17
3837,4.54,4.17
3838,4.54,4.17
3841,4.54,4.17
3842,4.54,4.17
3843,4.54,4.17
3844,4.54,4.17
3845,4.54,4.17
3846,4.54,4.17
3847,4.54,4.17
3848,4.54,4.17
3850,4.54,4.17
3851,4.54,4.17
3852,4.54,4.17
3853,4.54,4.17
3854,4.54,4.17
3855,4.54,4.17
3856,4.54,4.17
3857,4.54,4.17
3859,4.54,4.17
3860,4.54,4.17
3861,4.54,4.17
3862,4.54,4.17
3863,4.54,4.18
3864,4.54,4.18
3865,4.54,4.18
3866,4.54,4.18
3868,4.54,4.18
3869,4.54,4.18
3870,4.54,4.18
3871,4.54,4.18
3872,4.54,4.18
3873,4.54,4.18
3874,4.54,4.18
3875,4.54,4.18
3877,4.54,4.18
3878,4.54,4.18
3879,4.54,4.18
3880,4.54,4.18
3881,4.54,4.18
3883,4.54,4.18
3884,4.54,4.18
3885,4.54,4.18
3887,4.54,4.18
3888,4.54,4.18
3889,4.54,4.18
3890,4.54,4.18
3891,4.54,4.18
3892,4.54,4.18
3893,4.54,4.18
3894,4.54,4.18
3896,4.54,4.18
3897,4.54,4.18
3898,4.54,4.18
3899,4.54,4.18
3900,4.54,4.18
3901,4.54,4.18
3902,4.54,4.18
3903,4.54,4.18
3905,4.54,4.18
3906,4.54,4.18
3907,4.54,4.18
3908,4.54,4.18
3909,4.54,4.18
3910,4.54,4.18
3911,4.54,4.18
3912,4.54,4.18
3914,4.54,4.18
3915,4.54,4.18
3916,4.54,4.18
3917,4.54,4.18
3918,4.54,4.18
3919,4.54,4.18
3920,4.54,4.18
3921,4.54,4.18
3923,4.54,4.18
3924,4.54,4.18
3926,4.54,4.18
3927,4.54,4.18
3928,4.54,4.18
3929,4.54,4.18
3930,4.54,4.18
3931,4.54,4.18
3933,4.54,4.18
3934,4.54,4.18
3935,4.54,4.18
3936,4.54,4.18
3937,4.54,4.18
3938,4.54,4.18
3939,4.54,4.18
3941,4.54,4.17
3942,4.54,4.17
3943,4.54,4.17
3944,4.54,4.17
3945,4.54,4.17
3946,4.54,4.17
3947,4.54,4.17
3948,4.54,4.17
3950,4.54,4.17
3951,4.54,4.17
3952,4.54,4.17
3953,4.54,4.17
3954,4.54,4.16
3955,4.54,4.16
3956,4.54,4.16
3957,4.54,4.16
3959,4.54,4.16
3960,4.54,4.16
3961,4.54,4.16
3962,4.54,4.16
3963,4.54,4.16
3964,4.54,4.16
3965,4.54,4.16
3966,4.53,4.16
3969,4.54,4.16
3970,4.53,4.15
3971,4.54,4.15
3972,4.54,4.15
3973,4.54,4.15
3974,4.53,4.15
3975,4.54,4.15
3976,4.53,4.15
3978,4.53,4.15
3979,4.53,4.14
3980,4.53,4.14
3981,4.53,4.14
3982,4.53,4.14
3983,4.53,4.14
3984,4.53,4.14
3985,4.54,4.14
3987,4.53,4.13
3988,4.53,4.13
3989,4.53,4.13
3990,4.53,4.13
3991,4.53,4.13
3992,4.53,4.13
3993,4.53,4.13
3995,4.53,4.13
3996,4.53,4.12
3997,4.53,4.12
3998,4.53,4.12
3999,4.53,4.12
4000,4.53,4.12
4001,4.53,4.12
4002,4.53,4.11
4004,4.53,4.11
4005,4.53,4.11
4006,4.53,4.11
4007,4.53,4.11
4008,4.53,4.10
4009,4.53,4.10
4011,4.53,4.10
4012,4.53,4.10
4014,4.53,4.09
4015,4.53,4.09
4016,4.53,4.09
4017,4.53,4.08
4018,4.53,4.08
4019,4.53,4.08
4020,4.53,4.08
4021,4.53,4.07
4023,4.53,4.07
4024,4.53,4.07
4025,4.53,4.07
4026,4.53,4.06
4027,4.53,4.06
4028,4.53,4.06
4029,4.53,4.05
4030,4.53,4.05
4032,4.53,4.05
4033,4.53,4.05
4034,4.53,4.04
4035,4.53,4.04
4036,4.53,4.04
4037,4.53,4.03
4038,4.53,4.03
4039,4.53,4.02
4041,4.53,4.02
4042,4.53,4.02
4043,4.53,4.02
4044,4.53,4.01
4045,4.53,4.01
4046,4.53,4.01
4047,4.53,4.00
4048,4.53,4.00
4050,4.53,4.00
4051,4.53,3.99
4052,4.53,3.99
4054,4.53,3.99
4055,4.53,3.98
4056,4.53,3.98
4057,4.53,3.98
4058,4.53,3.98
4060,4.53,3.97
4061,4.53,3.97
4062,4.53,3.97
4063,4.53,3.96
4064,4.52,3.96
4065,4.52,3.96
4066,4.53,3.96
4067,4.53,3.95
4069,4.52,3.95
4070,4.53,3.95
4071,4.52,3.95
4072,4.52,3.94
4073,4.53,3.94
4074,4.52,3.94
4075,4.53,3.94
4076,4.52,3.93
4078,4.52,3.93
4079,4.52,3.93
4080,4.52,3.93
4081,4.52,3.92
4082,4.52,3.92
4083,4.52,3.92
4084,4.52,3.92
4085,4.52,3.91
4087,4.52,3.91
4088,4.52,3.91
4089,4.52,3.91
4090,4.52,3.91
4091,4.52,3.91
4092,4.52,3.90
4093,4.52,3.90
4094,4.52,3.90
4097,4.52,3.89
4098,4.52,3.89
4099,4.52,3.89
4100,4.52,3.89
4101,4.52,3.88
4102,4.52,3.88
4103,4.52,3.88
4104,4.52,3.88
4106,4.52,3.88
4107,4.52,3.87
4108,4.52,3.87
4109,4.52,3.87
4110,4.52,3.87
4111,4.52,3.87
4112,4.52,3.86
4113,4.52,3.86
4115,4.52,3.86
4116,4.52,3.86
4117,4.52,3.86
4118,4.52,3.86
4119,4.52,3.86
4120,4.52,3.85
4121,4.52,3.85
4123,4.52,3.85
4124,4.52,3.85
4125,4.52,3.85
4126,4.52,3.85
4127,4.52,3.85
4128,4.52,3.84
4129,4.52,3.84
4130,4.52,3.84
4132,4.52,3.84
4133,4.52,3.84
4134,4.52,3.84
4135,4.52,3.84
4136,4.52,3.84
4137,4.52,3.84
4139,4.52,3.84
4140,4.52,3.84
4142,4.52,3.83
4143,4.52,3.83
4144,4.52,3.83
4145,4.52,3.83
4146,4.52,3.83
4147,4.52,3.83
4148,4.52,3.83
4149,4.52,3.83
4151,4.52,3.83
4152,4.52,3.83
4153,4.52,3.83
4154,4.52,3.83
4155,4.52,3.83
4156,4.52,3.83
4157,4.52,3.83
4158,4.52,3.83
4160,4.52,3.83
4161,4.52,3.83
4162,4.52,3.83
4163,4.52,3.83
4164,4.52,3.83
4165,4.52,3.83
4166,4.52,3.83
4168,4.52,3.83
4169,4.52,3.83
4170,4.52,3.83
4171,4.52,3.83
4172,4.52,3.83
4173,4.52,3.83
4174,4.52,3.83
4175,4.52,3.83
4177,4.52,3.83
4178,4.52,3.83
4179,4.52,3.83
4180,4.52,3.83
4182,4.52,3.83
4183,4.52,3.83
4184,4.53,3.83
4185,4.53,3.83
4187,4.52,3.83
4188,4.52,3.83
4189,4.53,3.83
4190,4.53,3.83
4191,4.53,3.83
4192,4.53,3.83
4193,4.53,3.83
4194,4.53,3.83
4196,4.53,3.83
4197,4.53,3.83
4198,4.53,3.83
4199,4.53,3.83
4200,4.53,3.84
4201,4.53,3.83
4202,4.53,3.83
4203,4.53,3.84
4205,4.53,3.83
4206,4.53,3.83
4207,4.53,3.84
4208,4.53,3.84
4209,4.53,3.84
4210,4.53,3.84
4211,4.53,3.83
4212,4.53,3.84
4214,4.53,3.84
4215,4.53,3.84
4216,4.53,3.84
4217,4.53,3.84
4218,4.53,3.84
4219,4.52,3.84
4220,4.53,3.84
4222,4.53,3.84
4224,4.53,3.84
4225,4.53,3.84
4226,4.53,3.84
4227,4.52,3.84
4228,4.53,3.84
4229,4.53,3.84
4231,4.53,3.84
4232,4.53,3.84
4233,4.53,3.84
4234,4.52,3.84
4235,4.53,3.84
4236,4.53,3.84
4237,4.52,3.84
4238,4.52,3.84
4240,4.52,3.84
4241,4.52,3.84
4242,4.53,3.84
4243,4.52,3.84
4244,4.53,3.84
4245,4.52,3.84
4246,4.53,3.84
4248,4.52,3.84
4249,4.52,3.84
4250,4.52,3.84
4251,4.52,3.84
4252,4.52,3.84
4253,4.52,3.84
4254,4.53,3.84
4255,4.52,3.84
4257,4.52,3.84
4258,4.52,3.84
4259,4.52,3.84
4260,4.52,3.84
4261,4.52,3.84
4262,4.52,3.84
4263,4.52,3.84
4264,4.52,3.84
4267,4.52,3.84
4268,4.52,3.84
4269,4.52,3.84
4270,4.53,3.84
4271,4.52,3.84
4272,4.52,3.84
4273,4.52,3.84
4274,4.52,3.84
4276,4.52,3.84
4277,4.52,3.84
4278,4.52,3.84
4279,4.52,3.84
4280,4.53,3.84
4281,4.53,3.84
4282,4.53,3.84
4284,4.53,3.84
4285,4.52,3.84
4286,4.52,3.84
4287,4.52,3.84
4288,4.52,3.84
4289,4.52,3.84
4290,4.52,3.84
4291,4.52,3.84
4293,4.52,3.84
4294,4.52,3.84
4295,4.53,3.85
4296,4.53,3.85
4297,4.53,3.85
4298,4.53,3.85
4299,4.53,3.85
4301,4.53,3.85
4302,4.53,3.85
4303,4.53,3.86
4304,4.53,3.86
4305,4.53,3.86
4306,4.52,3.86
4307,4.53,3.86
4308,4.53,3.87
4311,4.53,3.87
4312,4.53,3.87
4313,4.53,3.87
4314,4.53,3.87
4315,4.53,3.87
4316,4.53,3.88
4317,4.53,3.88
4319,4.53,3.88
4320,4.53,3.88
4321,4.53,3.88
4322,4.53,3.89
4323,4.53,3.89
4324,4.53,3.89
4325,4.53,3.89
4326,4.53,3.90
4328,4.53,3.90
4329,4.53,3.90
4330,4.53,3.90
4331,4.53,3.90
4332,4.53,3.90
4333,4.53,3.91
4334,4.53,3.91
4335,4.53,3.91
4337,4.53,3.91
4338,4.53,3.91
4339,4.53,3.91
4340,4.53,3.91
4341,4.53,3.91
4342,4.53,3.92
4343,4.53,3.92
4344,4.53,3.92
4346,4.53,3.92
4347,4.53,3.92
4348,4.53,3.92
4349,4.53,3.93
4350,4.53,3.93
4352,4.53,3.93
4353,4.53,3.93
4355,4.53,3.93
4356,4.53,3.93
4357,4.52,3.94
4358,4.53,3.94
4359,4.52,3.94
4360,4.53,3.94
4361,4.53,3.94
4362,4.52,3.94
4364,4.52,3.95
4365,4.53,3.95
4366,4.52,3.95
4367,4.52,3.95
4368,4.52,3.95
4369,4.52,3.95
4370,4.52,3.95
4371,4.52,3.95
4373,4.52,3.95
4374,4.52,3.96
4375,4.52,3.96
4376,4.52,3.96
4377,4.52,3.96
4378,4.52,3.96
4379,4.53,3.96
4380,4.52,3.97
4382,4.52,3.97
4383,4.53,3.97
4384,4.52,3.97
4385,4.53,3.97
4386,4.52,3.97
4387,4.53,3.97
4388,4.52,3.98
4389,4.53,3.98
4391,4.53,3.98
4392,4.53,3.98
4393,4.53,3.98
4395,4.52,3.98
4396,4.53,3.98
4397,4.52,3.98
4398,4.53,3.98
4399,4.53,3.99
4401,4.53,3.99
4402,4.52,3.99
4403,4.53,3.99
4404,4.52,3.99
4405,4.53,3.99
4406,4.53,3.99
4407,4.53,3.99
4408,4.53,3.99
4410,4.53,3.99
4411,4.53,3.99
4412,4.53,3.99
4413,4.53,3.99
4414,4.53,4.00
4415,4.53,4.00
4416,4.53,4.00
4417,4.53,4.00
4419,4.53,4.00
4420,4.53,4.00
4421,4.53,4.00
4422,4.53,4.00
4423,4.53,4.00
4424,4.53,4.00
4425,4.53,4.00
4426,4.53,4.01
4427,4.53,4.01
4429,4.53,4.01
4430,4.53,4.01
4431,4.53,4.01
4432,4.53,4.01
4433,4.53,4.01
4434,4.53,4.01
4435,4.53,4.02
4436,4.53,4.02
4439,4.53,4.02
4440,4.53,4.02
4441,4.53,4.02
4442,4.53,4.02
4443,4.53,4.02
4444,4.53,4.02
4445,4.53,4.02
4446,4.53,4.02
4448,4.53,4.03
4449,4.53,4.03
4450,4.53,4.03
4451,4.53,4.03
4452,4.53,4.03
4453,4.53,4.03
4454,4.53,4.03
4455,4.53,4.03
4457,4.53,4.03
4458,4.53,4.03
4459,4.53,4.03
4460,4.53,4.03
4461,4.53,4.03
4462,4.53,4.03
4463,4.53,4.04
4464,4.53,4.04
4466,4.53,4.04
4467,4.53,4.04
4468,4.53,4.04
4469,4.53,4.04
4470,4.53,4.04
4471,4.53,4.04
4472,4.53,4.04
4474,4.53,4.04
4475,4.53,4.04
4476,4.53,4.04
4477,4.53,4.05
4478,4.53,4.05
4480,4.53,4.05
4481,4.53,4.05
4482,4.53,4.05
4484,4.53,4.05
4485,4.53,4.06
4486,4.53,4.06
4487,4.53,4.06
4488,4.53,4.06
4489,4.53,4.06
4490,4.53,4.06
4491,4.53,4.06
4493,4.53,4.07
4494,4.53,4.07
4495,4.53,4.07
4496,4.53,4.07
4497,4.53,4.07
4498,4.53,4.07
4499,4.53,4.07
4500,4.53,4.07
4502,4.53,4.07
4503,4.53,4.07
4504,4.53,4.07
4505,4.53,4.07
4506,4.53,4.08
4507,4.53,4.08
4508,4.53,4.08
4509,4.53,4.08
4511,4.53,4.08
4512,4.53,4.08
4513,4.53,4.08
4514,4.53,4.08
4515,4.53,4.08
4516,4.53,4.08
4517,4.53,4.08
4518,4.53,4.08
4520,4.53,4.08
4521,4.53,4.08
4523,4.53,4.08
4524,4.53,4.08
4525,4.53,4.08
4526,4.53,4.08
4527,4.53,4.08
4528,4.53,4.08
4530,4.53,4.08
4531,4.53,4.08
4532,4.53,4.08
4533,4.53,4.08
4534,4.53,4.07
4535,4.53,4.07
4536,4.53,4.07
4537,4.53,4.07
4539,4.53,4.07
4540,4.53,4.07
4541,4.53,4.07
4542,4.53,4.07
4543,4.53,4.06
4544,4.53,4.06
4545,4.53,4.06
4547,4.53,4.06
4548,4.53,4.06
4549,4.53,4.06
4550,4.53,4.05
4551,4.53,4.05
4552,4.53,4.05
4553,4.53,4.05
4554,4.53,4.05
4556,4.53,4.05
4557,4.53,4.04
4558,4.53,4.04
4559,4.53,4.04
4560,4.53,4.04
4561,4.53,4.04
4562,4.53,4.03
4563,4.53,4.03
4566,4.53,4.03
4567,4.53,4.03
4568,4.53,4.03
4569,4.53,4.03
4570,4.53,4.03
4571,4.53,4.02
4572,4.53,4.02
4573,4.53,4.02
4575,4.53,4.02
4576,4.53,4.02
4577,4.53,4.02
4578,4.53,4.02
4579,4.53,4.02
4580,4.53,4.02
4581,4.53,4.02
4582,4.53,4.01
4584,4.53,4.01
4585,4.53,4.01
4586,4.53,4.01
4587,4.53,4.01
4588,4.53,4.01
4589,4.53,4.01
4590,4.53,4.01
4591,4.53,4.01
4593,4.53,4.01
4594,4.53,4.01
4595,4.53,4.01
4596,4.53,4.01
4597,4.53,4.01
4598,4.53,4.01
4599,4.53,4.01
4600,4.53,4.01
4602,4.53,4.01
4603,4.53,4.01
4604,4.53,4.01
4605,4.53,4.01
4606,4.53,4.01
4608,4.53,4.01
4609,4.53,4.01
4610,4.53,4.01
4612,4.53,4.01
4613,4.53,4.01
4614,4.53,4.01
4615,4.53,4.01
4616,4.53,4.01
4617,4.53,4.01
4618,4.53,4.01
4619,4.53,4.01
4621,4.53,4.01
4622,4.53,4.01
4623,4.53,4.01
4624,4.53,4.01
4625,4.53,4.01
4626,4.53,4.01
4627,4.54,4.01
4628,4.53,4.01
4630,4.53,4.01
4631,4.53,4.01
4632,4.53,4.01
4633,4.53,4.01
4634,4.54,4.01
4635,4.53,4.01
4636,4.53,4.01
4637,4.53,4.01
4639,4.53,4.01
4640,4.53,4.01
4641,4.53,4.01
4642,4.53,4.01
4643,4.53,4.01
4644,4.53,4.01
4645,4.53,4.01
4646,4.53,4.01
4648,4.53,4.01
4649,4.53,4.01
4651,4.53,4.01
4652,4.53,4.01
4653,4.53,4.01
4654,4.53,4.01
4655,4.53,4.01
4656,4.54,4.02
4658,4.53,4.02
4659,4.53,4.02
4660,4.53,4.02
4661,4.53,4.02
4662,4.53,4.02
4663,4.53,4.02
4664,4.54,4.02
4665,4.54,4.02
4667,4.53,4.02
4668,4.53,4.02
4669,4.54,4.02
4670,4.54,4.02
4671,4.54,4.02
4672,4.54,4.02
4673,4.54,4.02
4674,4.53,4.02
4676,4.54,4.02
4677,4.54,4.02
4678,4.54,4.02
4679,4.54,4.02
4680,4.54,4.02
4681,4.54,4.02
4682,4.54,4.02
4683,4.54,4.02
4685,4.54,4.03
4686,4.54,4.03
4687,4.54,4.03
4688,4.54,4.03
4689,4.53,4.03
4690,4.54,4.03
4691,4.54,4.03
4692,4.54,4.03
4695,4.54,4.03
4696,4.54,4.03
4697,4.54,4.03
4698,4.54,4.03
4699,4.54,4.03
4700,4.54,4.03
4701,4.54,4.03
4702,4.54,4.03
4704,4.54,4.03
4705,4.54,4.03
4706,4.54,4.03
4707,4.54,4.03
4708,4.54,4.03
4709,4.54,4.03
4710,4.54,4.03
4711,4.54,4.03
4713,4.54,4.03
4714,4.54,4.03
4715,4.54,4.03
4716,4.54,4.03
4717,4.54,4.04
4718,4.54,4.03
4719,4.54,4.03
4720,4.54,4.03
4722,4.54,4.03
4723,4.54,4.04
4724,4.54,4.04
4725,4.54,4.04
4726,4.54,4.04
4727,4.54,4.04
4728,4.54,4.04
4729,4.54,4.04
4731,4.54,4.04
4732,4.54,4.04
4733,4.54,4.04
4734,4.54,4.04
4736,4.54,4.04
4737,4.54,4.04
4738,4.54,4.04
4740,4.54,4.04
4741,4.54,4.04
4742,4.54,4.04
4743,4.54,4.04
4744,4.54,4.04
4745,4.54,4.04
4746,4.54,4.04
4747,4.54,4.04
4749,4.54,4.04
4750,4.54,4.04
4751,4.54,4.04
4752,4.54,4.04
4753,4.54,4.04
4754,4.54,4.05
4755,4.54,4.04
4756,4.54,4.04
4758,4.54,4.05
4759,4.54,4.05
4760,4.54,4.05
4761,4.54,4.05
4762,4.54,4.05
4763,4.54,4.05
4764,4.54,4.05
4765,4.54,4.05
4767,4.54,4.05
4768,4.54,4.05
4769,4.54,4.05
4770,4.54,4.05
4771,4.54,4.05
4772,4.54,4.05
4773,4.54,4.05
4774,4.54,4.05
4776,4.54,4.05
4777,4.54,4.05
4779,4.54,4.05
4780,4.54,4.05
4781,4.54,4.06
4782,4.54,4.05
4783,4.54,4.05
4784,4.54,4.05
4786,4.54,4.06
4787,4.54,4.06
4788,4.54,4.06
4789,4.54,4.06
4790,4.54,4.06
4791,4.54,4.06
4792,4.54,4.06
4794,4.54,4.06
4795,4.54,4.06
4796,4.54,4.06
4797,4.54,4.06
4798,4.54,4.06
4799,4.54,4.06
4800,4.54,4.06
4801,4.54,4.06
4803,4.54,4.06
4804,4.54,4.06
4805,4.54,4.06
4806,4.54,4.06
4807,4.54,4.06
4808,4.54,4.06
4809,4.54,4.06
4810,4.54,4.06
4812,4.54,4.06
4813,4.54,4.06
4814,4.54,4.06
4815,4.54,4.06
4816,4.54,4.06
4817,4.54,4.06
4818,4.54,4.07
4819,4.54,4.07
4822,4.54,4.06
4823,4.54,4.07
4824,4.54,4.07
4825,4.54,4.07
4826,4.54,4.07
4827,4.54,4.07
4828,4.54,4.07
4829,4.54,4.07
4831,4.54,4.07
4832,4.54,4.07
4833,4.54,4.07
4834,4.54,4.07
4835,4.54,4.07
4836,4.54,4.07
4837,4.54,4.07
4838,4.54,4.07
4840,4.54,4.07
4841,4.54,4.07
4842,4.54,4.07
4843,4.54,4.07
4844,4.54,4.07
4845,4.54,4.07
4846,4.54,4.07
4847,4.54,4.07
4849,4.54,4.07
4850,4.54,4.07
4851,4.54,4.07
4852,4.54,4.07
4853,4.54,4.07
4854,4.54,4.07
4855,4.54,4.07
4856,4.54,4.07
4858,4.54,4.07
4859,4.54,4.07
4860,4.54,4.07
4861,4.54,4.07
4862,4.54,4.08
4864,4.54,4.08
4865,4.54,4.08
4866,4.54,4.08
4868,4.54,4.08
4869,4.54,4.08
4870,4.54,4.08
4871,4.54,4.08
4872,4.54,4.08
4873,4.54,4.08
4874,4.54,4.08
4876,4.54,4.08
4877,4.54,4.08
4878,4.54,4.08
4879,4.54,4.08
4880,4.54,4.08
4881,4.54,4.08
4882,4.54,4.08
4883,4.54,4.08
4885,4.54,4.08
4886,4.54,4.08
4887,4.54,4.08
4888,4.54,4.08
4889,4.54,4.08
4890,4.54,4.08
4891,4.54,4.08
4892,4.54,4.08
4894,4.54,4.08
4895,4.54,4.08
4896,4.54,4.08
4897,4.54,4.08
4898,4.54,4.09
4899,4.54,4.08
4900,4.54,4.08
4901,4.54,4.08
4902,4.54,4.08
4904,4.54,4.08
4905,4.54,4.09
4907,4.54,4.09
4908,4.54,4.09
4909,4.54,4.09
4910,4.54,4.09
4911,4.54,4.09
4913,4.54,4.09
4914,4.54,4.09
4915,4.54,4.10
4916,4.53,4.09
4917,4.49,4.06
4918,4.45,4.03
4919,4.40,4.00
4920,4.35,3.96
4922,4.29,3.93
4923,4.23,3.89
4924,4.17,3.87
4925,4.13,3.85
4926,4.12,3.84
4927,4.10,3.83
4928,4.10,3.83
4929,4.10,3.84
4931,4.11,3.85
4932,4.11,3.85
4933,4.10,3.83
4934,4.07,3.81
4935,4.03,3.78
4936,4.00,3.75
4937,3.96,3.73
4938,3.91,3.70
4940,3.87,3.68
4941,3.85,3.67
4942,3.84,3.67
4943,3.84,3.68
4944,3.85,3.69
4945,3.87,3.70
4946,3.89,3.71
4948,3.91,3.73
4950,3.92,3.72
4951,3.91,3.71
4952,3.89,3.69
4953,3.87,3.67
4954,3.84,3.65
4955,3.81,3.63
4956,3.78,3.61
4958,3.75,3.60
4959,3.75,3.61
4960,3.76,3.62
4961,3.78,3.63
4962,3.80,3.65
4963,3.83,3.67
4964,3.86,3.68
4965,3.87,3.68
4967,3.87,3.67
4968,3.86,3.66
4969,3.84,3.64
4970,3.82,3.63
4971,3.79,3.61
4972,3.77,3.59
4973,3.74,3.57
4974,3.73,3.58
4976,3.74,3.59
4977,3.76,3.60
4978,3.78,3.62
4979,3.81,3.64
4980,3.84,3.66
4981,3.87,3.67
4982,3.88,3.67
4983,3.87,3.66
4985,3.86,3.65
4986,3.84,3.63
4987,3.82,3.62
4988,3.79,3.60
4989,3.77,3.58
4990,3.75,3.58
4992,3.75,3.58
4993,3.76,3.60
4995,3.79,3.61
4996,3.81,3.63
4997,3.85,3.66
4998,3.88,3.68
4999,3.89,3.68
5000,3.89,3.67
5001,3.88,3.66
5003,3.86,3.64
5004,3.84,3.63
5005,3.82,3.61
5006,3.79,3.60
5007,3.77,3.59
5008,3.76,3.59
5009,3.77,3.60
5010,3.79,3.61
5012,3.82,3.63
5013,3.85,3.65
5014,3.88,3.68
5015,3.90,3.68
5016,3.90,3.67
5017,3.89,3.66
5018,3.88,3.65
5019,3.86,3.64
5021,3.83,3.62
5022,3.81,3.61
5023,3.78,3.59
5024,3.77,3.59
5025,3.76,3.59
5026,3.78,3.60
5027,3.80,3.62
5028,3.83,3.64
5030,3.86,3.67
5031,3.89,3.68
5032,3.90,3.68
5033,3.90,3.67
5035,3.89,3.66
5036,3.87,3.64
5037,3.85,3.63
5038,3.82,3.61
5040,3.79,3.60
5041,3.77,3.59
5042,3.76,3.59
5043,3.77,3.60
5044,3.79,3.61
5045,3.82,3.63
5046,3.85,3.66
5048,3.88,3.68
5049,3.90,3.68
5050,3.90,3.67
5051,3.89,3.66
5052,3.88,3.65
5053,3.85,3.64
5054,3.83,3.62
5055,3.81,3.60
5057,3.78,3.59
5058,3.76,3.59
5059,3.77,3.59
5060,3.78,3.61
5061,3.81,3.62
5062,3.84,3.65
5063,3.87,3.67
5064,3.89,3.68
5066,3.90,3.68
5067,3.89,3.66
5068,3.88,3.65
5069,3.86,3.64
5070,3.84,3.62
5071,3.81,3.61
5072,3.78,3.59
5073,3.76,3.59
5075,3.76,3.59
5076,3.77,3.60
5078,3.79,3.61
5079,3.82,3.64
5080,3.85,3.66
5081,3.88,3.68
5082,3.90,3.68
5084,3.90,3.67
5085,3.89,3.66
5086,3.87,3.65
5087,3.85,3.63
5088,3.82,3.62
5089,3.80,3.60
5090,3.77,3.59
5091,3.76,3.59
5093,3.77,3.60
5094,3.79,3.61
5095,3.81,3.63
5096,3.84,3.65
5097,3.88,3.67
5098,3.90,3.68
5099,3.90,3.68
5100,3.89,3.67
5102,3.88,3.66
5103,3.86,3.64
5104,3.84,3.63
5105,3.81,3.61
5106,3.78,3.59
5107,3.77,3.59
5108,3.76,3.60
5110,3.78,3.61
5111,3.80,3.62
5112,3.83,3.64
5113,3.86,3.67
5114,3.89,3.68
5115,3.90,3.68
5116,3.90,3.67
5117,3.88,3.66
5120,3.87,3.64
5121,3.84,3.63
5122,3.82,3.61
5123,3.79,3.59
5124,3.77,3.59
5125,3.76,3.59
5126,3.77,3.60
5127,3.79,3.61
5129,3.82,3.63
5130,3.85,3.66
5131,3.88,3.67
5132,3.90,3.68
5133,3.90,3.67
5134,3.89,3.66
5135,3.87,3.65
5136,3.85,3.64
5138,3.83,3.62
5139,3.80,3.61
5140,3.78,3.59
5141,3.76,3.59
5142,3.77,3.59
5143,3.78,3.61
5144,3.80,3.62
5145,3.83,3.65
5147,3.87,3.67
5148,3.89,3.68
5149,3.90,3.68
5150,3.90,3.67
5151,3.88,3.66
5152,3.86,3.64
5153,3.84,3.63
5154,3.82,3.61
5156,3.79,3.60
5157,3.77,3.59
5158,3.76,3.59
5159,3.77,3.60
5160,3.80,3.62
5161,3.82,3.64
5163,3.85,3.66
5165,3.88,3.68
5166,3.90,3.68
5167,3.90,3.67
5168,3.88,3.66
5169,3.87,3.65
5170,3.85,3.63
5171,3.82,3.62
5172,3.80,3.60
5174,3.77,3.59
5175,3.76,3.59
5176,3.76,3.59
5177,3.78,3.61
5178,3.81,3.63
5179,3.84,3.65
5180,3.87,3.67
5181,3.89,3.68
5183,3.90,3.68
5184,3.89,3.67
5185,3.88,3.65
5186,3.86,3.64
5187,3.83,3.62
5188,3.81,3.61
5189,3.78,3.59
5191,3.76,3.59
5192,3.76,3.59
5193,3.77,3.60
5194,3.80,3.62
5195,3.82,3.64
5196,3.86,3.66
5197,3.89,3.68
5198,3.90,3.68
5200,3.89,3.67
5201,3.88,3.66
5202,3.86,3.65
5203,3.84,3.63
5204,3.82,3.62
5206,3.79,3.60
5207,3.77,3.59
5208,3.76,3.59
5210,3.77,3.60
5211,3.79,3.61
5212,3.81,3.63
5213,3.84,3.65
5214,3.88,3.67
5215,3.89,3.68
5216,3.89,3.67
5217,3.89,3.66
5219,3.87,3.65
5220,3.85,3.64
5221,3.83,3.62
5222,3.80,3.60
5223,3.77,3.59
5224,3.76,3.59
5225,3.76,3.59
5226,3.77,3.60
5228,3.80,3.62
5229,3.83,3.64
5230,3.86,3.67
5231,3.89,3.68
5232,3.90,3.68
5233,3.89,3.67
5234,3.88,3.66
5235,3.86,3.64
5237,3.84,3.63
5238,3.81,3.62
5239,3.79,3.60
5240,3.77,3.59
5241,3.76,3.59
5242,3.77,3.60
5243,3.79,3.62
5245,3.82,3.63
5246,3.85,3.66
5248,3.88,3.68
5249,3.90,3.68
5250,3.90,3.68
5251,3.89,3.66
5252,3.87,3.65
5253,3.85,3.64
5255,3.83,3.62
5256,3.80,3.61
5257,3.78,3.59
5258,3.76,3.59
5259,3.77,3.60
5260,3.78,3.61
5261,3.81,3.63
5262,3.84,3.65
5264,3.87,3.67
5265,3.89,3.68
5266,3.90,3.68
5267,3.89,3.67
5268,3.88,3.66
5269,3.86,3.64
5270,3.83,3.63
5271,3.81,3.61
5273,3.78,3.59
5274,3.76,3.58
5275,3.76,3.59
5276,3.77,3.60
5277,3.79,3.62
5278,3.82,3.64
5279,3.85,3.66
5281,3.88,3.68
5282,3.90,3.68
5283,3.90,3.67
5284,3.88,3.66
5285,3.87,3.65
5286,3.85,3.64
5287,3.82,3.62
5288,3.80,3.60
5291,3.77,3.59
5292,3.76,3.59
5293,3.77,3.60
5294,3.78,3.61
5295,3.81,3.63
5296,3.84,3.65
5297,3.87,3.68
5298,3.90,3.68
5300,3.90,3.68
5301,3.89,3.67
5302,3.88,3.66
5303,3.86,3.64
5304,3.83,3.63
5305,3.81,3.61
5306,3.78,3.60
5307,3.76,3.59
5309,3.77,3.60
5310,3.78,3.61
5311,3.80,3.63
5312,3.83,3.64
5313,3.86,3.67
5314,3.89,3.68
5315,3.90,3.68
5316,3.90,3.67
5318,3.88,3.66
5319,3.86,3.64
5320,3.84,3.63
5321,3.82,3.62
5322,3.79,3.60
5323,3.77,3.59
5324,3.76,3.59
5325,3.77,3.60
5327,3.79,3.61
5328,3.81,3.63
5329,3.85,3.66
5330,3.88,3.68
5331,3.90,3.68
5332,3.90,3.68
5334,3.89,3.67
5336,3.88,3.66
5337,3.85,3.64
5338,3.83,3.63
5339,3.81,3.61
5340,3.78,3.60
5341,3.76,3.59
5342,3.77,3.60
5343,3.78,3.61
5345,3.81,3.63
5346,3.84,3.65
5347,3.87,3.68
5348,3.90,3.69
5349,3.90,3.68
5350,3.90,3.67
5351,3.89,3.66
5352,3.87,3.65
5354,3.84,3.64
5355,3.82,3.62
5356,3.79,3.60
5357,3.77,3.59
5358,3.77,3.60
5359,3.78,3.61
5360,3.80,3.62
5362,3.83,3.64
5363,3.86,3.67
5364,3.89,3.69
5365,3.90,3.68
5366,3.90,3.68
5367,3.89,3.66
5368,3.87,3.65
5369,3.85,3.64
5371,3.82,3.62
5372,3.80,3.60
5373,3.77,3.59
5374,3.76,3.59
5376,3.77,3.60
5377,3.78,3.61
5378,3.81,3.63
5379,3.84,3.66
5381,3.87,3.68
5382,3.90,3.69
5383,3.90,3.68
5384,3.89,3.67
5385,3.88,3.66
5386,3.86,3.65
5387,3.84,3.63
5388,3.81,3.61
5390,3.79,3.60
5391,3.77,3.59
5392,3.77,3.60
5393,3.78,3.61
5394,3.80,3.62
5395,3.83,3.65
5396,3.86,3.67
5397,3.89,3.69
5399,3.90,3.69
5400,3.90,3.68
5401,3.89,3.67
5402,3.87,3.65
5403,3.85,3.64
5404,3.82,3.62
5405,3.80,3.61
5407,3.77,3.60
5408,3.77,3.59
5409,3.78,3.61
5410,3.79,3.62
5411,3.82,3.64
5412,3.85,3.66
5413,3.88,3.68
5414,3.90,3.69
5416,3.90,3.68
5417,3.89,3.67
5419,3.88,3.66
5420,3.85,3.64
5421,3.83,3.62
5422,3.81,3.61
5423,3.78,3.59
5424,3.76,3.59
5426,3.76,3.60
5427,3.78,3.61
5428,3.80,3.63
5429,3.83,3.65
5430,3.87,3.67
5431,3.89,3.69
5432,3.90,3.68
5433,3.90,3.67
5435,3.88,3.66
5436,3.86,3.65
5437,3.84,3.63
5438,3.82,3.62
5439,3.79,3.60
5440,3.77,3.59
5441,3.76,3.60
5442,3.77,3.61
5444,3.79,3.62
5445,3.82,3.64
5446,3.85,3.66
5447,3.88,3.69
5448,3.90,3.69
5449,3.90,3.68
5450,3.89,3.67
5451,3.88,3.66
5453,3.86,3.64
5454,3.83,3.63
5455,3.81,3.61
5456,3.78,3.60
5457,3.77,3.60
5458,3.77,3.61
5459,3.79,3.62
5460,3.81,3.64
5463,3.84,3.65
5464,3.88,3.68
5465,3.90,3.69
5466,3.91,3.68
5467,3.90,3.67
5468,3.88,3.66
5469,3.86,3.65
5471,3.84,3.63
5472,3.81,3.62
5473,3.79,3.60
5474,3.77,3.59
5475,3.76,3.60
5476,3.77,3.61
5477,3.80,3.62
5478,3.83,3.64
5480,3.86,3.67
5481,3.89,3.69
5482,3.91,3.69
5483,3.90,3.68
5484,3.89,3.67
5485,3.88,3.66
5486,3.85,3.64
5487,3.83,3.63
5489,3.80,3.61
5490,3.78,3.60
5491,3.77,3.60
5492,3.78,3.61
5493,3.79,3.62
5494,3.82,3.64
5495,3.85,3.66
5496,3.88,3.69
5498,3.91,3.70
5499,3.91,3.69
5500,3.91,3.68
5501,3.89,3.67
5502,3.87,3.66
5504,3.85,3.64
5505,3.82,3.63
5507,3.80,3.61
5508,3.78,3.61
5509,3.78,3.61
5510,3.79,3.62
5511,3.82,3.64
5512,3.84,3.66
5513,3.88,3.68
5514,3.90,3.69
5516,3.91,3.70
5517,3.91,3.68
5518,3.89,3.67
5519,3.87,3.65
5520,3.85,3.64
5521,3.83,3.62
5522,3.80,3.61
5523,3.78,3.60
5525,3.77,3.60
5526,3.78,3.61
5527,3.80,3.62
5528,3.82,3.64
5529,3.85,3.66
5530,3.88,3.69
5531,3.90,3.69
5532,3.91,3.69
5534,3.90,3.67
5535,3.88,3.66
5536,3.86,3.65
5537,3.84,3.63
5538,3.81,3.61
5539,3.79,3.60
5540,3.77,3.60
5541,3.77,3.60
5543,3.79,3.62
5544,3.81,3.64
5545,3.84,3.66
5547,3.88,3.68
5548,3.90,3.69
5549,3.91,3.69
5550,3.91,3.68
5552,3.89,3.67
5553,3.88,3.66
5554,3.85,3.64
5555,3.83,3.63
5556,3.80,3.61
5557,3.78,3.60
5558,3.77,3.60
5559,3.78,3.62
5561,3.80,3.63
5562,3.83,3.65
5563,3.86,3.67
5564,3.89,3.69
5565,3.91,3.69
5566,3.91,3.68
5567,3.90,3.67
5568,3.88,3.66
5570,3.86,3.64
5571,3.83,3.62
5572,3.81,3.61
5573,3.78,3.60
5574,3.77,3.60
5575,3.77,3.60
5576,3.79,3.62
5577,3.81,3.64
5579,3.84,3.66
5580,3.88,3.68
5581,3.90,3.69
5582,3.91,3.69
5583,3.90,3.68
5584,3.89,3.66
5585,3.87,3.65
5587,3.84,3.63
5588,3.82,3.62
5590,3.79,3.60
5591,3.77,3.60
5592,3.77,3.60
5593,3.79,3.61
5594,3.81,3.63
5595,3.83,3.65
5597,3.87,3.68
5598,3.90,3.69
5599,3.91,3.69
5600,3.91,3.69
5601,3.90,3.67
5602,3.88,3.66
5603,3.86,3.64
5604,3.83,3.63
5606,3.81,3.61
5607,3.78,3.60
5608,3.77,3.60
5609,3.78,3.61
5610,3.80,3.63
5611,3.83,3.64
5612,3.86,3.67
5613,3.89,3.69
5615,3.91,3.69
5616,3.91,3.69
5617,3.90,3.67
5618,3.88,3.66
5619,3.86,3.65
5620,3.84,3.63
5621,3.81,3.61
5623,3.78,3.60
5624,3.77,3.60
5625,3.77,3.60
5626,3.79,3.61
5627,3.81,3.63
5628,3.84,3.65
5629,3.87,3.68
5630,3.90,3.69
5633,3.91,3.69
5634,3.91,3.68
5635,3.89,3.67
5636,3.87,3.66
5637,3.85,3.64
5638,3.83,3.63
5639,3.80,3.61
5640,3.78,3.60
5642,3.77,3.60
5643,3.78,3.61
5644,3.80,3.63
5645,3.83,3.64
5646,3.86,3.67
5647,3.89,3.69
5648,3.91,3.70
5649,3.91,3.69
5651,3.90,3.68
5652,3.89,3.67
5653,3.86,3.65
5654,3.84,3.63
5655,3.81,3.62
5656,3.79,3.61
5657,3.78,3.61
5659,3.78,3.62
5660,3.80,3.62
5661,3.82,3.64
5662,3.85,3.66
5663,3.88,3.69
5664,3.91,3.69
5665,3.91,3.69
5666,3.90,3.67
5668,3.89,3.66
5669,3.87,3.65
5670,3.84,3.64
5671,3.82,3.62
5672,3.79,3.60
5673,3.77,3.60
5675,3.77,3.61
5676,3.78,3.61
5678,3.80,3.63
5679,3.83,3.65
5680,3.86,3.67
5681,3.90,3.69
5682,3.91,3.69
5683,3.91,3.69
5684,3.90,3.67
5685,3.88,3.66
5687,3.86,3.65
5688,3.83,3.63
5689,3.81,3.61
5690,3.78,3.60
5691,3.77,3.60
5692,3.78,3.61
5693,3.80,3.63
5694,3.82,3.64
5696,3.85,3.66
5697,3.89,3.69
5698,3.91,3.70
5699,3.91,3.69
5700,3.90,3.68
5701,3.89,3.67
5702,3.87,3.65
5704,3.85,3.64
5705,3.82,3.62
5706,3.79,3.61
5707,3.78,3.60
5708,3.78,3.61
5709,3.79,3.62
5710,3.81,3.64
5711,3.84,3.66
5713,3.87,3.68
5714,3.90,3.69
5715,3.91,3.69
5716,3.90,3.68
5718,3.89,3.67
5719,3.87,3.65
5720,3.84,3.64
5721,3.82,3.62
5723,3.79,3.60
5724,3.77,3.59
5725,3.76,3.60
5726,3.77,3.60
5727,3.79,3.62
5728,3.82,3.64
5729,3.85,3.66
5730,3.88,3.68
5732,3.90,3.69
5733,3.90,3.68
5734,3.89,3.67
5735,3.87,3.66
5736,3.85,3.64
5737,3.83,3.63
5738,3.80,3.61
5740,3.78,3.60
5741,3.76,3.59
5742,3.77,3.60
5743,3.78,3.62
5744,3.81,3.63
5745,3.84,3.65
5746,3.87,3.68
5747,3.89,3.69
5749,3.90,3.69
5750,3.89,3.68
5751,3.88,3.66
5752,3.86,3.65
5753,3.84,3.64
5754,3.81,3.62
5755,3.79,3.60
5756,3.77,3.60
5758,3.76,3.60
5760,3.78,3.61
5761,3.80,3.63
5762,3.82,3.65
5763,3.86,3.67
5764,3.89,3.69
5765,3.90,3.69
5767,3.89,3.68
5768,3.88,3.67
5769,3.86,3.65
5770,3.84,3.64
5771,3.82,3.62
5772,3.79,3.60
5773,3.77,3.59
5774,3.76,3.59
5776,3.76,3.60
5777,3.78,3.62
5778,3.81,3.64
5779,3.84,3.66
5780,3.87,3.68
5781,3.89,3.69
5782,3.90,3.68
5783,3.89,3.67
5785,3.87,3.66
5786,3.85,3.65
5787,3.83,3.63
5788,3.80,3.61
5789,3.78,3.60
5790,3.76,3.59
5791,3.76,3.60
5792,3.77,3.61
5794,3.80,3.63
5795,3.83,3.65
5796,3.86,3.67
5797,3.89,3.69
5798,3.90,3.69
5799,3.89,3.68
5800,3.88,3.67
5803,3.86,3.65
5804,3.84,3.64
5805,3.82,3.62
5806,3.79,3.60
5807,3.77,3.59
5808,3.76,3.59
5809,3.77,3.61
5810,3.79,3.62
5812,3.82,3.64
5813,3.85,3.66
5814,3.88,3.68
5815,3.90,3.68
5816,3.90,3.68
5817,3.88,3.67
5818,3.87,3.65
5819,3.85,3.64
5821,3.82,3.62
5822,3.80,3.61
5823,3.77,3.59
5824,3.76,3.59
5825,3.76,3.60
5826,3.78,3.61
5827,3.80,3.63
5828,3.83,3.65
5830,3.86,3.68
5831,3.89,3.69
5832,3.90,3.68
5833,3.89,3.67
5834,3.87,3.66
5835,3.86,3.65
5836,3.83,3.63
5837,3.81,3.61
5839,3.78,3.60
5840,3.76,3.59
5841,3.76,3.60
5842,3.77,3.61
5843,3.79,3.62
5844,3.82,3.64
5846,3.85,3.67
5847,3.88,3.69
5849,3.90,3.69
5850,3.90,3.68
5851,3.89,3.67
5852,3.87,3.66
5853,3.85,3.64
5854,3.83,3.63
5855,3.80,3.61
5857,3.77,3.60
5858,3.76,3.60
5859,3.77,3.61
5860,3.79,3.62
5861,3.81,3.64
5862,3.84,3.66
5863,3.88,3.68
5864,3.90,3.69
5866,3.90,3.68
5867,3.89,3.67
5868,3.88,3.66
5869,3.86,3.65
5870,3.83,3.63
5871,3.81,3.61
5872,3.78,3.60
5873,3.76,3.59
5875,3.76,3.60
5876,3.77,3.61
5877,3.80,3.63
5878,3.82,3.65
5879,3.86,3.67
5880,3.89,3.69
5881,3.90,3.68
5882,3.90,3.68
5884,3.88,3.67
5885,3.86,3.65
5886,3.84,3.64
5888,3.82,3.62
5889,3.79,3.61
5890,3.77,3.59
5891,3.76,3.60
5893,3.77,3.61
5894,3.79,3.62
5895,3.81,3.64
5896,3.85,3.66
5897,3.88,3.69
5898,3.90,3.69
5899,3.90,3.68
5900,3.89,3.67
5902,3.88,3.66
5903,3.85,3.65
5904,3.83,3.63
5905,3.80,3.61
5906,3.78,3.60
5907,3.76,3.60
5908,3.77,3.60
5909,3.78,3.62
5911,3.80,3.63
5912,3.83,3.66
5913,3.87,3.68
5914,3.89,3.69
5915,3.90,3.69
5916,3.89,3.68
5917,3.88,3.66
5918,3.86,3.65
5920,3.84,3.63
5921,3.81,3.62
5922,3.79,3.60
5923,3.76,3.59
5924,3.76,3.60
5925,3.77,3.60
5926,3.79,3.62
5928,3.82,3.64
5929,3.85,3.67
5931,3.88,3.69
5932,3.90,3.69
5933,3.90,3.68
5934,3.89,3.67
5935,3.87,3.66
5936,3.85,3.64
5938,3.83,3.63
5939,3.80,3.61
5940,3.77,3.60
5941,3.76,3.59
5942,3.77,3.60
5943,3.79,3.62
5944,3.81,3.64
5945,3.84,3.66
5947,3.87,3.68
5948,3.90,3.69
5949,3.90,3.69
5950,3.90,3.68
5951,3.88,3.67
5952,3.86,3.65
5953,3.84,3.64
5955,3.81,3.61
5956,3.79,3.60
5957,3.77,3.60
5958,3.77,3.60
5959,3.78,3.62
5960,3.80,3.63
5961,3.83,3.66
5962,3.86,3.67
5964,3.89,3.69
5965,3.90,3.69
5966,3.90,3.68
5967,3.88,3.67
5968,3.87,3.65
5969,3.84,3.64
5970,3.82,3.62
5971,3.79,3.60
5974,3.77,3.59
5975,3.76,3.60
5976,3.77,3.60
5977,3.79,3.62
5978,3.81,3.64
5979,3.84,3.66
5980,3.88,3.68
5981,3.90,3.69
5983,3.90,3.69
5984,3.89,3.67
5985,3.88,3.66
5986,3.85,3.65
5987,3.83,3.63
5988,3.81,3.61
5989,3.78,3.60
5991,3.76,3.60
5992,3.77,3.60
5993,3.78,3.61
5994,3.80,3.63
5995,3.83,3.65
5996,3.87,3.68
5997,3.89,3.69
5998,3.91,3.69
6000,3.90,3.68
6001,3.88,3.67
6002,3.87,3.65
6003,3.84,3.64
6004,3.82,3.62
6005,3.79,3.61
6006,3.77,3.61
6007,3.77,3.60
6009,3.78,3.61
6010,3.80,3.63
6011,3.82,3.65
6012,3.85,3.67
6013,3.88,3.69
6014,3.90,3.69
6016,3.90,3.68
6017,3.89,3.67
6019,3.87,3.66
6020,3.85,3.64
6021,3.82,3.63
6022,3.80,3.61
6023,3.77,3.60
6024,3.76,3.60
6025,3.76,3.60
6026,3.78,3.62
6028,3.81,3.63
6029,3.84,3.66
6030,3.87,3.68
6031,3.89,3.69
6032,3.90,3.69
6033,3.89,3.68
6034,3.88,3.66
6036,3.86,3.65
6037,3.84,3.64
6038,3.81,3.62
6039,3.79,3.60
6040,3.77,3.60
6041,3.77,3.60
6042,3.78,3.61
6043,3.80,3.63
6045,3.83,3.65
6046,3.86,3.67
6047,3.89,3.69
6048,3.91,3.70
6049,3.90,3.69
6050,3.89,3.67
6051,3.87,3.67
6052,3.85,3.65
6054,3.83,3.63
6055,3.80,3.61
6056,3.78,3.60
6057,3.77,3.61
6059,3.78,3.61
6060,3.80,3.63
6061,3.82,3.65
6062,3.85,3.67
6064,3.89,3.69
6065,3.91,3.69
6066,3.91,3.69
6067,3.89,3.68
6068,3.88,3.66
6069,3.86,3.65
6070,3.83,3.63
6072,3.81,3.61
6073,3.78,3.59
6074,3.76,3.60
6075,3.77,3.61
6076,3.78,3.62
6077,3.81,3.63
6078,3.83,3.66
6079,3.87,3.68
6081,3.89,3.69
6082,3.91,3.69
6083,3.90,3.68
6084,3.89,3.67
6085,3.87,3.66
6086,3.85,3.64
6087,3.82,3.63
6088,3.80,3.61
6090,3.78,3.60
6091,3.77,3.61
6092,3.78,3.61
6093,3.80,3.63
6094,3.83,3.65
6095,3.86,3.67
6096,3.89,3.69
6097,3.91,3.70
6099,3.91,3.69
6100,3.90,3.68
6102,3.89,3.67
6103,3.87,3.65
6104,3.84,3.64
6105,3.82,3.62
6106,3.79,3.61
6107,3.78,3.61
6109,3.78,3.61
6110,3.79,3.62
6111,3.82,3.64
6112,3.85,3.66
6113,3.88,3.69
6114,3.90,3.70
6115,3.91,3.69
6117,3.90,3.68
6118,3.89,3.67
6119,3.87,3.65
6120,3.85,3.64
6121,3.82,3.62
6122,3.79,3.61
6123,3.77,3.60
6124,3.77,3.60
6126,3.78,3.62
6127,3.80,3.63
6128,3.83,3.65
6129,3.86,3.67
6130,3.89,3.69
6131,3.91,3.70
6132,3.91,3.69
6133,3.90,3.68
6135,3.88,3.67
6136,3.86,3.65
6137,3.84,3.63
6138,3.81,3.62
6139,3.78,3.60
6140,3.77,3.61
6141,3.78,3.62
6142,3.80,3.63
6145,3.82,3.65
6146,3.85,3.67
6147,3.88,3.69
6148,3.91,3.70
6149,3.91,3.70
6150,3.91,3.69
6151,3.89,3.68
6153,3.87,3.66
6154,3.85,3.64
6155,3.82,3.63
6156,3.79,3.61
6157,3.78,3.61
6158,3.78,3.61
6159,3.79,3.62
6160,3.81,3.64
6162,3.84,3.66
6163,3.87,3.69
6164,3.90,3.70
6165,3.91,3.70
6166,3.91,3.70
6167,3.90,3.69
6168,3.89,3.67
6169,3.86,3.65
6171,3.84,3.64
6172,3.81,3.62
6173,3.79,3.61
6174,3.78,3.61
6175,3.79,3.62
6176,3.81,3.64
6177,3.83,3.65
6178,3.86,3.68
6180,3.90,3.70
6181,3.91,3.70
6182,3.92,3.70
6183,3.91,3.69
6184,3.90,3.68
6185,3.88,3.66
6187,3.85,3.65
6188,3.83,3.63
6190,3.80,3.62
6191,3.78,3.61
6192,3.78,3.62
6193,3.80,3.63
6194,3.82,3.65
6195,3.85,3.67
6196,3.88,3.69
6197,3.91,3.70
6199,3.92,3.70
6200,3.91,3.69
6201,3.90,3.68
6202,3.88,3.67
6203,3.86,3.65
6204,3.84,3.63
6205,3.81,3.62
6207,3.79,3.61
6208,3.78,3.61
6209,3.79,3.62
6210,3.81,3.64
6211,3.84,3.66
6212,3.87,3.68
6213,3.90,3.70
6214,3.91,3.70
6216,3.91,3.70
6217,3.91,3.69
6218,3.89,3.68
6219,3.87,3.66
6220,3.85,3.64
6221,3.82,3.63
6222,3.79,3.61
6223,3.78,3.61
6225,3.78,3.62
6226,3.80,3.63
6227,3.82,3.65
6228,3.85,3.67
6230,3.89,3.70
6231,3.91,3.70
6232,3.91,3.70
6233,3.91,3.69
6235,3.90,3.68
6236,3.88,3.67
6237,3.85,3.65
6238,3.83,3.63
6239,3.80,3.62
6240,3.78,3.61
6241,3.78,3.61
6242,3.79,3.62
6244,3.81,3.64
6245,3.84,3.66
6246,3.87,3.68
6247,3.90,3.70
6248,3.91,3.70
6249,3.91,3.70
6250,3.90,3.68
6251,3.89,3.68
6253,3.87,3.66
6254,3.84,3.64
6255,3.81,3.62
6256,3.79,3.61
6257,3.78,3.61
6258,3.78,3.62
6259,3.80,3.63
6260,3.83,3.65
6262,3.86,3.67
6263,3.89,3.70
6264,3.91,3.70
6265,3.91,3.70
6266,3.91,3.69
6267,3.89,3.67
6268,3.87,3.65
6269,3.85,3.64
6272,3.82,3.62
6273,3.79,3.61
6274,3.78,3.61
6275,3.78,3.61
6276,3.79,3.62
6277,3.81,3.64
6278,3.84,3.66
6280,3.87,3.68
6281,3.90,3.70
6282,3.91,3.70
6283,3.91,3.69
6284,3.90,3.68
6285,3.88,3.66
6286,3.86,3.65
6287,3.83,3.63
6289,3.81,3.62
6290,3.79,3.61
6291,3.78,3.61
6292,3.78,3.62
6293,3.80,3.63
6294,3.83,3.65
6295,3.86,3.67
6296,3.89,3.70
6298,3.91,3.70
6299,3.91,3.70
6300,3.91,3.69
6301,3.89,3.68
6302,3.87,3.66
6303,3.85,3.65
6304,3.82,3.63
6305,3.79,3.61
6307,3.78,3.61
6308,3.78,3.62
6309,3.80,3.63
6310,3.82,3.65
6311,3.85,3.67
6312,3.88,3.69
6313,3.91,3.70
6316,3.91,3.70
6317,3.91,3.69
6318,3.90,3.67
6319,3.88,3.66
6320,3.85,3.64
6321,3.83,3.63
6322,3.80,3.61
6323,3.78,3.60
6325,3.78,3.61
6326,3.79,3.62
6327,3.81,3.64
6328,3.84,3.66
6329,3.87,3.68
6330,3.90,3.70
6331,3.91,3.70
6333,3.91,3.70
6334,3.91,3.69
6335,3.89,3.68
6336,3.87,3.66
6337,3.85,3.64
6338,3.82,3.63
6339,3.80,3.62
6340,3.79,3.62
6342,3.79,3.63
6343,3.81,3.64
6344,3.84,3.66
6345,3.87,3.68
6346,3.90,3.70
6347,3.92,3.71
6348,3.93,3.71
6349,3.93,3.70
6351,3.91,3.69
6352,3.90,3.68
6353,3.88,3.66
6354,3.85,3.65
6355,3.82,3.63
6356,3.81,3.63
6358,3.81,3.63
6360,3.82,3.64
6361,3.84,3.66
6362,3.87,3.68
6363,3.90,3.70
6364,3.93,3.72
6365,3.94,3.72
6366,3.94,3.72
6367,3.93,3.70
6369,3.91,3.70
6370,3.90,3.68
6371,3.87,3.66
6372,3.84,3.64
6373,3.82,3.64
6374,3.81,3.64
6375,3.82,3.65
6376,3.84,3.66
6378,3.87,3.68
6379,3.90,3.70
6380,3.92,3.71
6381,3.96,3.73
6382,3.99,3.76
6383,4.03,3.78
6384,4.07,3.81
6385,4.11,3.83
6387,4.14,3.86
6388,4.17,3.88
6389,4.20,3.91
6390,4.23,3.92
6391,4.26,3.94
6392,4.29,3.96
6393,4.32,3.97
6395,4.34,3.99
6396,4.37,4.00
6397,4.39,4.02
6398,4.41,4.03
6400,4.44,4.04
6401,4.46,4.06
6402,4.48,4.07
6403,4.50,4.08
6404,4.52,4.09
6406,4.53,4.10
6407,4.55,4.11
6408,4.56,4.12
6409,4.57,4.13
6410,4.58,4.13
6411,4.59,4.13
6412,4.60,4.14
6414,4.61,4.14
6415,4.61,4.14
6416,4.61,4.15
6417,4.62,4.15
6418,4.62,4.15
6419,4.62,4.15
6420,4.62,4.16
6421,4.62,4.16
6423,4.62,4.16
6424,4.62,4.16
6425,4.62,4.16
6426,4.62,4.16
6427,4.62,4.16
6428,4.62,4.16
6429,4.61,4.16
6430,4.61,4.16
6432,4.61,4.15
6433,4.61,4.15
6434,4.60,4.15
6435,4.60,4.15
6436,4.60,4.15
6437,4.59,4.15
6438,4.59,4.15
6439,4.59,4.15
6441,4.58,4.15
6443,4.58,4.14
6444,4.58,4.14
6445,4.57,4.14
6446,4.57,4.14
6447,4.57,4.14
6448,4.57,4.14
6449,4.57,4.14
6451,4.57,4.14
6452,4.56,4.14
6453,4.56,4.14
6454,4.56,4.13
6455,4.56,4.13
6456,4.55,4.13
6457,4.55,4.13
6458,4.55,4.13
6460,4.55,4.13
6461,4.55,4.13
6462,4.55,4.13
6463,4.55,4.13
6464,4.54,4.13
6465,4.54,4.13
6466,4.54,4.13
6467,4.54,4.13
6469,4.54,4.13
6470,4.54,4.13
6471,4.54,4.13
6472,4.54,4.13
6473,4.54,4.13
6474,4.54,4.13
6475,4.54,4.13
6476,4.54,4.13
6478,4.54,4.13
6479,4.54,4.13
6480,4.54,4.13
6481,4.54,4.13
6482,4.54,4.13
6483,4.54,4.13
6484,4.54,4.13
6486,4.54,4.13
6488,4.54,4.13
6489,4.54,4.13
6490,4.54,4.13
6491,4.54,4.14
6492,4.54,4.14
6493,4.54,4.14
6494,4.54,4.14
6495,4.54,4.14
6497,4.54,4.13
6498,4.54,4.14
6499,4.54,4.14
6500,4.54,4.14
6501,4.54,4.14
6502,4.54,4.14
6503,4.54,4.14
6504,4.54,4.14
6506,4.54,4.14
6507,4.54,4.14
6508,4.54,4.14
6509,4.54,4.14
6510,4.55,4.14
6511,4.55,4.14
6512,4.55,4.14
6513,4.55,4.14
6515,4.55,4.14
6516,4.55,4.14
6517,4.55,4.14
6518,4.55,4.14
6519,4.55,4.14
6520,4.55,4.14
6521,4.55,4.14
6523,4.55,4.14
6524,4.55,4.14
6525,4.55,4.14
6526,4.55,4.14
6528,4.55,4.14
6529,4.55,4.14
6530,4.55,4.14
6531,4.55,4.14
6533,4.55,4.14
6534,4.55,4.14
6535,4.55,4.14
6536,4.55,4.14
6537,4.55,4.14
6538,4.55,4.14
6539,4.55,4.14
6541,4.55,4.14
6542,4.55,4.14
6543,4.55,4.14
6544,4.55,4.14
6545,4.55,4.14
6546,4.55,4.14
6547,4.55,4.14
6548,4.55,4.14
6550,4.55,4.14
6551,4.55,4.14
6552,4.55,4.14
6553,4.55,4.14
6554,4.55,4.14
6555,4.55,4.14
6556,4.55,4.14
6558,4.55,4.14
6559,4.55,4.14
6560,4.55,4.14
6561,4.55,4.14
6562,4.55,4.14
6563,4.55,4.14
6564,4.55,4.14
6565,4.55,4.14
6567,4.55,4.14
6568,4.55,4.14
6569,4.55,4.14
6571,4.55,4.14
6572,4.55,4.14
6573,4.55,4.14
6574,4.55,4.14
6575,4.55,4.14
6577,4.55,4.14
6578,4.54,4.14
6579,4.55,4.14
6580,4.55,4.14
6581,4.55,4.14
6582,4.55,4.14
6583,4.55,4.14
6585,4.55,4.14
6586,4.55,4.14
6587,4.55,4.14
6588,4.55,4.14
6589,4.55,4.13
6590,4.55,4.14
6591,4.55,4.14
6592,4.55,4.14
6594,4.55,4.13
6595,4.55,4.14
6596,4.55,4.13
6597,4.55,4.13
6598,4.55,4.13
6599,4.55,4.13
6600,4.55,4.13
6602,4.55,4.13
6603,4.55,4.14
6604,4.55,4.13
6605,4.55,4.13
6606,4.55,4.13
6607,4.55,4.13
6608,4.55,4.13
6609,4.55,4.13
6611,4.55,4.13
6612,4.55,4.14
6614,4.55,4.13
6615,4.55,4.13
6616,4.55,4.13
6617,4.55,4.13
6618,4.55,4.13
6620,4.55,4.13
6621,4.55,4.13
6622,4.55,4.13
6623,4.55,4.13
6624,4.55,4.13
6625,4.55,4.13
6626,4.55,4.13
6627,4.55,4.13
6629,4.55,4.13
6630,4.55,4.13
6631,4.55,4.13
6632,4.55,4.13
6633,4.55,4.13
6634,4.55,4.13
6635,4.54,4.13
6636,4.54,4.13
6638,4.54,4.13
6639,4.54,4.13
6640,4.54,4.13
6641,4.55,4.13
6642,4.54,4.13
6643,4.55,4.13
6644,4.55,4.13
6646,4.55,4.13
6647,4.54,4.13
6648,4.54,4.13
6649,4.54,4.13
6650,4.54,4.13
6651,4.54,4.13
6652,4.54,4.13
6653,4.55,4.13
6656,4.54,4.13
6657,4.55,4.13
6658,4.54,4.13
6659,4.54,4.13
6660,4.54,4.13
6661,4.54,4.13
6662,4.55,4.13
6663,4.55,4.13
6665,4.55,4.13
6666,4.54,4.13
6667,4.55,4.13
6668,4.55,4.13
6669,4.55,4.13
6670,4.55,4.13
6671,4.55,4.13
6672,4.55,4.13
6674,4.55,4.13
6675,4.54,4.13
6676,4.54,4.13
6677,4.54,4.13
6678,4.54,4.13
6679,4.54,4.13
6680,4.54,4.13
6681,4.54,4.13
6683,4.54,4.13
6684,4.54,4.13
6685,4.54,4.13
6686,4.54,4.13
6687,4.54,4.13
6688,4.54,4.13
6689,4.54,4.13
6690,4.54,4.13
6692,4.54,4.13
6693,4.54,4.13
6694,4.54,4.13
6695,4.54,4.13
6696,4.54,4.13
6697,4.54,4.13
6699,4.54,4.13
6700,4.54,4.13
6702,4.54,4.13
6703,4.54,4.13
6704,4.54,4.13
6705,4.54,4.13
6706,4.54,4.13
6707,4.54,4.13
6708,4.54,4.13
6709,4.54,4.13
6711,4.54,4.13
6712,4.54,4.13
6713,4.54,4.13
6714,4.54,4.13
6715,4.54,4.13
6716,4.54,4.13
6717,4.54,4.13
6718,4.54,4.13
6720,4.54,4.13
6721,4.54,4.13
6722,4.54,4.14
6723,4.54,4.13
6724,4.54,4.14
6725,4.54,4.14
6726,4.54,4.14
6727,4.54,4.14
6729,4.54,4.14
6730,4.54,4.14
6731,4.54,4.14
6732,4.54,4.14
6733,4.54,4.14
6734,4.54,4.14
6735,4.54,4.14
6736,4.54,4.14
6738,4.54,4.14
6739,4.54,4.14
6740,4.54,4.14
6742,4.54,4.14
6743,4.54,4.14
6744,4.54,4.14
6745,4.54,4.14
6746,4.54,4.14
6748,4.54,4.14
6749,4.54,4.14
6750,4.54,4.14
6751,4.54,4.14
6752,4.54,4.14
6753,4.54,4.14
6754,4.54,4.14
6755,4.54,4.14
6757,4.54,4.14
6758,4.54,4.14
6759,4.54,4.14
6760,4.54,4.14
6761,4.54,4.14
6762,4.54,4.14
6763,4.54,4.14
6764,4.54,4.14
6766,4.54,4.14
6767,4.54,4.14
6768,4.54,4.14
6769,4.54,4.14
6770,4.54,4.14
6771,4.54,4.14
6772,4.54,4.14
6773,4.54,4.14
6775,4.54,4.14
6776,4.54,4.14
6777,4.54,4.14
6778,4.54,4.14
6779,4.54,4.14
6780,4.54,4.15
6781,4.54,4.14
6782,4.54,4.15
6785,4.54,4.15
6786,4.54,4.14
6787,4.54,4.14
6788,4.54,4.15
6789,4.54,4.14
6790,4.54,4.15
6791,4.54,4.15
6792,4.54,4.15
6794,4.54,4.15
6795,4.54,4.15
6796,4.54,4.15
6797,4.54,4.15
6798,4.54,4.15
6799,4.54,4.15
6800,4.54,4.15
6802,4.54,4.15
6803,4.54,4.15
6804,4.54,4.15
6805,4.54,4.15
6806,4.54,4.15
6807,4.54,4.14
6808,4.54,4.15
6809,4.54,4.15
6811,4.54,4.15
6812,4.54,4.15
6813,4.54,4.15
6814,4.54,4.15
6815,4.54,4.15
6816,4.54,4.15
6817,4.54,4.15
6818,4.54,4.15
6820,4.54,4.15
6821,4.54,4.15
6822,4.54,4.15
6823,4.54,4.15
6824,4.54,4.15
6825,4.54,4.15
6827,4.54,4.15
6828,4.54,4.15
6830,4.54,4.15
6831,4.54,4.15
6832,4.54,4.15
6833,4.54,4.15
6834,4.54,4.15
6835,4.54,4.15
6836,4.54,4.15
6837,4.54,4.15
6839,4.54,4.15
6840,4.54,4.15
6841,4.54,4.15
6842,4.54,4.15
6843,4.54,4.15
6844,4.54,4.15
6845,4.54,4.15
6846,4.54,4.15
6848,4.54,4.15
6849,4.54,4.15
6850,4.54,4.15
6851,4.54,4.15
6852,4.54,4.15
6853,4.54,4.15
6854,4.54,4.16
6855,4.54,4.16
6857,4.54,4.16
6858,4.54,4.16
6859,4.54,4.16
6860,4.54,4.16
6861,4.54,4.16
6862,4.54,4.16
6863,4.54,4.16
6864,4.54,4.16
6866,4.54,4.16
6867,4.54,4.16
6868,4.54,4.16
6870,4.54,4.16
6871,4.54,4.16
6872,4.54,4.16
6873,4.54,4.16
6874,4.54,4.16
6876,4.54,4.16
6877,4.54,4.16
6878,4.54,4.16
6879,4.54,4.16
6880,4.54,4.16
6881,4.54,4.16
6882,4.54,4.16
6883,4.54,4.16
6885,4.54,4.16
6886,4.54,4.16
6887,4.54,4.16
6888,4.54,4.16
6889,4.54,4.16
6890,4.54,4.16
6891,4.54,4.16
6892,4.54,4.16
6894,4.54,4.16
6895,4.54,4.16
6896,4.54,4.16
6897,4.54,4.16
6898,4.54,4.16
6899,4.54,4.16
6900,4.54,4.16
6901,4.54,4.16
6903,4.54,4.16
6904,4.53,4.16
6905,4.54,4.16
6906,4.54,4.16
6907,4.54,4.16
6908,4.54,4.16
6909,4.54,4.16
6910,4.54,4.16
6913,4.54,4.16
6914,4.54,4.16
6915,4.54,4.16
6916,4.54,4.16
6917,4.54,4.16
6918,4.54,4.16
6919,4.54,4.16
6920,4.54,4.16
6922,4.54,4.16
6923,4.54,4.16
6924,4.54,4.16
6925,4.54,4.16
6926,4.54,4.16
6927,4.54,4.16
6928,4.54,4.16
6929,4.54,4.16
6931,4.54,4.16
6932,4.54,4.16
6933,4.54,4.16
6934,4.54,4.16
6935,4.54,4.16
6936,4.54,4.16
6937,4.54,4.16
6938,4.54,4.16
6940,4.54,4.16
6941,4.54,4.16
6942,4.54,4.16
6943,4.54,4.16
6944,4.54,4.16
6945,4.53,4.16
6946,4.54,4.16
6948,4.54,4.16
6949,4.53,4.16
6950,4.53,4.16
6951,4.54,4.16
6952,4.54,4.16
6953,4.54,4.16
6955,4.54,4.16
6956,4.54,4.16
6958,4.53,4.16
6959,4.54,4.16
6960,4.54,4.16
6961,4.53,4.16
6962,4.53,4.16
6963,4.54,4.16
6964,4.54,4.16
6965,4.53,4.16
6967,4.54,4.16
6968,4.54,4.16
6969,4.54,4.16
6970,4.54,4.16
6971,4.54,4.16
6972,4.54,4.16
6973,4.54,4.16
6974,4.54,4.16
6976,4.54,4.16
6977,4.54,4.16
6978,4.54,4.15
6979,4.53,4.15
6980,4.54,4.15
6981,4.54,4.15
6982,4.54,4.15
6984,4.54,4.15
6985,4.54,4.15
6986,4.54,4.15
6987,4.53,4.15
6988,4.53,4.15
6989,4.53,4.15
6990,4.53,4.15
6991,4.54,4.15
6993,4.54,4.15
6994,4.53,4.15
6995,4.53,4.15
6996,4.53,4.14
6998,4.53,4.14
6999,4.53,4.14
7000,4.53,4.14
7001,4.54,4.14
7003,4.53,4.14
7004,4.53,4.14
7005,4.53,4.14
7006,4.53,4.14
7007,4.53,4.14
7008,4.53,4.14
7009,4.53,4.14
7010,4.53,4.13
7012,4.53,4.13
7013,4.53,4.13
7014,4.53,4.13
7015,4.53,4.13
7016,4.53,4.13
7017,4.53,4.13
7018,4.53,4.13
7019,4.53,4.13
7021,4.53,4.13
7022,4.53,4.13
7023,4.53,4.13
7024,4.53,4.13
7025,4.53,4.13
7026,4.53,4.13
7027,4.53,4.13
7028,4.53,4.13
7030,4.53,4.13
7031,4.53,4.13
7032,4.53,4.13
7033,4.53,4.13
7034,4.53,4.13
7035,4.53,4.13
7036,4.53,4.13
7038,4.53,4.12
7040,4.53,4.12
7041,4.53,4.12
7042,4.53,4.12
7043,4.53,4.12
7044,4.53,4.12
7045,4.53,4.12
7046,4.53,4.12
7048,4.53,4.12
7049,4.53,4.12
7050,4.53,4.12
7051,4.53,4.12
7052,4.53,4.12
7053,4.53,4.12
7054,4.53,4.12
7056,4.53,4.12
7057,4.53,4.11
7058,4.53,4.11
7059,4.53,4.11
7060,4.53,4.11
7061,4.53,4.11
7062,4.53,4.11
7064,4.53,4.11
7065,4.53,4.11
7066,4.53,4.11
7067,4.53,4.10
7068,4.53,4.10
7069,4.53,4.10
7070,4.53,4.10
7071,4.53,4.10
7073,4.53,4.10
7074,4.53,4.10
7075,4.53,4.10
7076,4.53,4.10
7077,4.53,4.10
7078,4.53,4.10
7079,4.53,4.09
7080,4.53,4.09
7083,4.53,4.09
7084,4.53,4.09
7085,4.53,4.09
7086,4.53,4.09
7087,4.53,4.08
7088,4.53,4.08
7089,4.53,4.08
7090,4.53,4.08
7092,4.53,4.08
7093,4.53,4.08
7094,4.53,4.08
7095,4.53,4.07
7096,4.53,4.07
7097,4.53,4.07
7098,4.53,4.07
7099,4.53,4.07
7101,4.53,4.07
7102,4.53,4.06
7103,4.53,4.06
7104,4.53,4.06
7105,4.53,4.06
7106,4.53,4.05
7107,4.53,4.05
7108,4.53,4.05
7110,4.53,4.05
7111,4.53,4.05
7112,4.53,4.04
7113,4.53,4.04
7114,4.53,4.04
7115,4.53,4.04
7116,4.53,4.04
7118,4.53,4.03
7119,4.53,4.03
7120,4.53,4.03
7121,4.53,4.03
7122,4.53,4.03
7123,4.53,4.02
7124,4.53,4.02
7126,4.53,4.02
7128,4.53,4.02
7129,4.53,4.01
7130,4.53,4.01
7131,4.53,4.01
7132,4.53,4.01
7133,4.53,4.01
7134,4.53,4.00
7135,4.53,4.00
7137,4.53,4.00
7138,4.53,4.00
7139,4.53,3.99
7140,4.53,3.99
7141,4.53,3.99
7142,4.53,3.99
7143,4.53,3.98
7144,4.53,3.98
7146,4.53,3.98
7147,4.53,3.97
7148,4.53,3.97
7149,4.53,3.97
7150,4.53,3.97
7151,4.53,3.96
7152,4.53,3.96
7153,4.53,3.96
7155,4.53,3.96
7156,4.53,3.95
7157,4.53,3.95
7158,4.52,3.95
7159,4.52,3.95
7160,4.53,3.94
7161,4.53,3.94
7162,4.53,3.94
7164,4.52,3.94
7165,4.53,3.93
7166,4.52,3.93
7168,4.52,3.93
7169,4.52,3.93
7170,4.52,3.92
7171,4.52,3.92
7172,4.52,3.92
7174,4.52,3.92
7175,4.52,3.91
7176,4.52,3.91
7177,4.52,3.91
7178,4.52,3.91
7179,4.52,3.91
7180,4.52,3.91
7181,4.52,3.91
7183,4.52,3.90
7184,4.52,3.90
7185,4.52,3.90
7186,4.52,3.90
7187,4.52,3.90
7188,4.52,3.89
7189,4.52,3.89
7190,4.52,3.89
7192,4.52,3.89
7193,4.52,3.89
7194,4.52,3.89
7195,4.52,3.89
7196,4.52,3.88
7197,4.52,3.88
7198,4.52,3.88
7199,4.52,3.88
7201,4.52,3.88
7202,4.52,3.88
7203,4.52,3.87
7204,4.52,3.87
7205,4.52,3.87
7206,4.52,3.87
7207,4.52,3.87
7209,4.52,3.87
7211,4.52,3.87
7212,4.52,3.87
7213,4.52,3.87
7214,4.52,3.86
7215,4.52,3.86
7216,4.52,3.86
7217,4.52,3.86
7219,4.52,3.86
7220,4.52,3.86
7221,4.52,3.86
7222,4.52,3.86
7223,4.52,3.85
7224,4.52,3.85
7225,4.52,3.85
7226,4.52,3.85
7228,4.52,3.85
7229,4.52,3.85
7230,4.52,3.85
7231,4.52,3.85
7232,4.52,3.85
7233,4.52,3.85
7234,4.52,3.85
7235,4.52,3.85
7237,4.52,3.84
7238,4.52,3.84
7239,4.52,3.84
7240,4.52,3.84
7241,4.52,3.84
7242,4.52,3.84
7243,4.52,3.84
7244,4.52,3.84
7246,4.52,3.84
7247,4.52,3.84
7248,4.52,3.84
7249,4.52,3.84
7250,4.52,3.84
7251,4.52,3.84
7252,4.52,3.84
7255,4.52,3.84
7256,4.52,3.84
7257,4.52,3.84
7258,4.52,3.84
7259,4.52,3.84
7260,4.52,3.83
7261,4.52,3.83
7262,4.52,3.83
7264,4.52,3.83
7265,4.52,3.83
7266,4.52,3.84
7267,4.52,3.84
7268,4.52,3.84
7269,4.52,3.84
7270,4.52,3.84
7271,4.52,3.84
7273,4.52,3.84
7274,4.52,3.84
7275,4.52,3.83
7276,4.52,3.84
7277,4.52,3.84
7278,4.52,3.84
7279,4.52,3.84
7281,4.52,3.84
7282,4.52,3.84
7283,4.52,3.84
7284,4.52,3.84
7285,4.52,3.84
7286,4.52,3.84
7287,4.52,3.84
7288,4.52,3.84
7290,4.52,3.84
7291,4.52,3.84
7292,4.52,3.84
7293,4.52,3.84
7294,4.52,3.84
7296,4.52,3.84
7297,4.52,3.84
7298,4.52,3.84
7300,4.52,3.84
7301,4.52,3.84
7302,4.52,3.84
7303,4.52,3.85
7304,4.52,3.84
7305,4.52,3.85
7306,4.52,3.85
7308,4.52,3.85
7309,4.52,3.85
7310,4.52,3.85
7311,4.52,3.85
7312,4.52,3.85
7313,4.52,3.85
7314,4.52,3.85
7315,4.52,3.85
7317,4.52,3.85
7318,4.52,3.85
7319,4.52,3.85
7320,4.52,3.85
7321,4.52,3.85
7322,4.52,3.85
7323,4.52,3.85
7324,4.52,3.85
7326,4.52,3.85
7327,4.52,3.85
7328,4.52,3.85
7329,4.52,3.85
7330,4.52,3.85
7331,4.52,3.85
7332,4.52,3.86
7333,4.52,3.85
7335,4.52,3.86
7336,4.52,3.86
7337,4.52,3.86
7339,4.52,3.86
7340,4.52,3.86
7341,4.52,3.85
7342,4.52,3.86
7343,4.52,3.86
7345,4.52,3.86
7346,4.52,3.86
7347,4.52,3.86
7348,4.52,3.86
7349,4.52,3.86
7350,4.52,3.86
7351,4.52,3.86
7353,4.52,3.86
7354,4.52,3.86
7355,4.52,3.86
7356,4.52,3.86
7357,4.52,3.86
7358,4.52,3.86
7359,4.52,3.86
7360,4.52,3.86
7362,4.52,3.86
7363,4.52,3.86
7364,4.52,3.86
7365,4.52,3.86
7366,4.52,3.86
7367,4.52,3.86
7368,4.52,3.86
7369,4.52,3.87
7371,4.52,3.86
7372,4.52,3.86
7373,4.52,3.86
7374,4.52,3.86
7375,4.52,3.86
7376,4.52,3.86
7377,4.52,3.87
7378,4.52,3.86
7380,4.52,3.86
7382,4.52,3.86
7383,4.52,3.86
7384,4.52,3.86
7385,4.52,3.86
7386,4.52,3.86
7387,4.52,3.86
7388,4.52,3.86
7390,4.52,3.86
7391,4.52,3.86
7392,4.52,3.86
7393,4.52,3.86
7394,4.52,3.86
7395,4.52,3.86
7396,4.52,3.87
7397,4.52,3.87
7399,4.52,3.87
7400,4.52,3.87
7401,4.52,3.87
7402,4.52,3.87
7403,4.52,3.87
7404,4.52,3.87
7405,4.52,3.87
7406,4.52,3.87
7408,4.52,3.87
7409,4.52,3.87
7410,4.52,3.87
7411,4.52,3.87
7412,4.52,3.87
7413,4.52,3.87
7414,4.52,3.87
7416,4.52,3.87
7417,4.52,3.87
7418,4.52,3.87
7419,4.52,3.87
7420,4.52,3.87
7421,4.52,3.87
7422,4.52,3.87
7424,4.52,3.87
7426,4.52,3.87
7427,4.52,3.87
7428,4.52,3.87
7429,4.52,3.87
7430,4.52,3.87
7431,4.52,3.87
7432,4.52,3.87
7434,4.52,3.87
7435,4.52,3.87
7436,4.52,3.87
7437,4.52,3.87
7438,4.52,3.87
7439,4.52,3.87
7440,4.52,3.87
7441,4.52,3.87
7443,4.52,3.87
7444,4.52,3.87
7445,4.52,3.87
7446,4.52,3.87
7447,4.52,3.87
7448,4.52,3.87
7449,4.52,3.87
7451,4.52,3.87
7452,4.52,3.87
7453,4.52,3.87
7454,4.52,3.87
7455,4.52,3.87
7456,4.52,3.87
7457,4.52,3.87
7459,4.52,3.87
7460,4.52,3.87
7461,4.52,3.87
7462,4.52,3.87
7463,4.52,3.87
7464,4.52,3.87
7465,4.52,3.87
7467,4.52,3.87
7469,4.52,3.87
7470,4.52,3.87
7471,4.52,3.87
7472,4.52,3.87
7473,4.52,3.87
7474,4.52,3.87
7475,4.52,3.87
7476,4.52,3.87
7478,4.52,3.87
7479,4.52,3.87
7480,4.52,3.87
7481,4.52,3.87
7482,4.52,3.87
7483,4.52,3.87
7484,4.52,3.87
7485,4.52,3.87
7487,4.52,3.87
7488,4.52,3.87
7489,4.52,3.87
7490,4.52,3.87
7491,4.52,3.87
7492,4.52,3.87
7493,4.52,3.87
7495,4.52,3.87
7496,4.52,3.87
7497,4.52,3.87
7498,4.52,3.87
7499,4.52,3.87
7500,4.52,3.87
7501,4.52,3.87
7502,4.52,3.87
7504,4.52,3.87
7505,4.52,3.87
7506,4.52,3.87
7507,4.52,3.87
7508,4.52,3.87
7510,4.52,3.87
7511,4.52,3.87
7512,4.52,3.87
7514,4.52,3.87
7515,4.52,3.87
7516,4.52,3.87
7517,4.52,3.87
7518,4.52,3.87
7519,4.52,3.87
7520,4.52,3.87
7522,4.52,3.87
7523,4.52,3.87
7524,4.52,3.87
7525,4.52,3.87
7526,4.52,3.87
7527,4.52,3.87
7528,4.52,3.87
7530,4.52,3.87
7531,4.52,3.87
7532,4.52,3.87
7533,4.52,3.87
7534,4.52,3.87
7535,4.52,3.87
7536,4.52,3.87
7537,4.52,3.87
7539,4.52,3.87
7540,4.52,3.87
7541,4.52,3.87
7542,4.52,3.87
7543,4.52,3.87
7544,4.52,3.87
7545,4.52,3.87
7546,4.52,3.87
7548,4.52,3.87
7549,4.52,3.87
7550,4.52,3.87
7552,4.52,3.87
7553,4.52,3.87
7554,4.52,3.87
7555,4.52,3.87
7556,4.52,3.87
7558,4.52,3.87
7559,4.52,3.87
7560,4.52,3.87
7561,4.52,3.87
7562,4.52,3.87
7563,4.52,3.87
7564,4.52,3.87
7565,4.52,3.87
7567,4.52,3.87
7568,4.52,3.87
7569,4.52,3.87
7570,4.52,3.87
7571,4.52,3.87
7572,4.52,3.87
7573,4.52,3.87
7574,4.52,3.87
7576,4.52,3.87
7577,4.52,3.87
7578,4.52,3.87
7579,4.52,3.87
7580,4.52,3.87
7581,4.52,3.87
7582,4.52,3.87
7583,4.52,3.87
7585,4.52,3.87
7586,4.52,3.87
7587,4.52,3.87
7588,4.52,3.87
7589,4.52,3.87
7590,4.52,3.87
7591,4.52,3.87
7592,4.52,3.87
7595,4.52,3.87
7596,4.52,3.87
7597,4.52,3.87
7598,4.52,3.87
7599,4.52,3.87
7600,4.52,3.87
7601,4.52,3.87
7602,4.52,3.87
7604,4.52,3.87
7605,4.52,3.87
7606,4.52,3.87
7607,4.52,3.87
7608,4.52,3.87
7609,4.52,3.87
7610,4.52,3.87
7611,4.52,3.87
7613,4.52,3.87
7614,4.52,3.87
7615,4.52,3.88
7616,4.52,3.87
7617,4.52,3.87
7618,4.52,3.87
7619,4.52,3.87
7620,4.52,3.87
7622,4.52,3.87
7623,4.52,3.88
7624,4.52,3.88
7625,4.52,3.87
7626,4.52,3.88
7627,4.52,3.87
7628,4.52,3.88
7630,4.52,3.87
7631,4.52,3.87
7632,4.52,3.87
7633,4.52,3.87
7634,4.52,3.87
7635,4.52,3.87
7636,4.52,3.87
7638,4.52,3.88
7640,4.52,3.88
7641,4.52,3.88
7642,4.52,3.88
7643,4.52,3.88
7644,4.52,3.88
7645,4.52,3.88
7646,4.52,3.88
7648,4.52,3.88
7649,4.52,3.88
7650,4.52,3.87
7651,4.52,3.87
7652,4.52,3.88
7653,4.52,3.87
7654,4.52,3.88
7655,4.52,3.88
7657,4.52,3.88
7658,4.51,3.88
7659,4.52,3.88
7660,4.52,3.88
7661,4.52,3.88
7662,4.52,3.88
7663,4.52,3.88
7665,4.52,3.88
7666,4.52,3.88
7667,4.52,3.88
7668,4.52,3.88
7669,4.52,3.88
7670,4.52,3.88
7671,4.51,3.88
7673,4.51,3.88
7674,4.52,3.88
7675,4.52,3.88
7676,4.52,3.88
7677,4.52,3.88
7678,4.51,3.88
7680,4.52,3.88
7682,4.52,3.88
7683,4.52,3.88
7684,4.52,3.88
7685,4.52,3.88
7686,4.51,3.88
7687,4.52,3.88
7688,4.52,3.88
7689,4.52,3.88
7691,4.51,3.88
7692,4.52,3.88
7693,4.51,3.88
7694,4.51,3.88
7695,4.51,3.88
7696,4.51,3.88
7697,4.51,3.88
7699,4.52,3.88
7700,4.51,3.88
7701,4.51,3.88
7702,4.51,3.88
7703,4.51,3.88
7704,4.51,3.88
7705,4.51,3.88
7706,4.51,3.88
7708,4.51,3.88
7709,4.52,3.88
7710,4.52,3.88
7711,4.52,3.87
7712,4.51,3.87
7713,4.52,3.88
7714,4.51,3.88
7716,4.51,3.88
7717,4.51,3.88
7718,4.52,3.88
7719,4.51,3.88
7720,4.51,3.88
7721,4.51,3.88
7723,4.51,3.88
7724,4.51,3.88
7726,4.51,3.88
7727,4.51,3.88
7728,4.51,3.88
7729,4.51,3.88
7730,4.51,3.88
7731,4.51,3.88
7732,4.51,3.88
7733,4.51,3.88
7735,4.51,3.88
7736,4.51,3.88
7737,4.51,3.88
7738,4.51,3.88
7739,4.51,3.88
7740,4.51,3.88
7741,4.51,3.88
7743,4.51,3.88
7744,4.51,3.88
7745,4.51,3.88
7746,4.51,3.88
7747,4.51,3.88
7748,4.51,3.88
7749,4.51,3.88
7750,4.51,3.88
7752,4.51,3.88
7753,4.51,3.88
7754,4.51,3.88
7755,4.51,3.88
7756,4.51,3.88
7757,4.51,3.88
7758,4.51,3.88
7760,4.51,3.88
7761,4.51,3.88
7762,4.51,3.88
7763,4.51,3.88
7764,4.51,3.88
7766,4.51,3.88
7767,4.51,3.88
7768,4.51,3.88
7770,4.51,3.88
7771,4.51,3.88
7772,4.51,3.88
7773,4.51,3.88
7774,4.51,3.88
7775,4.51,3.88
7776,4.51,3.88
7778,4.51,3.88
7779,4.51,3.88
7780,4.51,3.88
7781,4.51,3.88
7782,4.51,3.88
7783,4.51,3.88
7784,4.51,3.88
7785,4.51,3.88
7787,4.51,3.88
7788,4.51,3.88
7789,4.51,3.88
7790,4.51,3.88
7791,4.51,3.88
7792,4.51,3.88
7793,4.51,3.88
7795,4.51,3.88
7796,4.51,3.88
7797,4.51,3.88
7798,4.51,3.88
7799,4.51,3.88
7800,4.51,3.88
7801,4.51,3.88
7802,4.51,3.88
7804,4.51,3.88
7805,4.51,3.88
7806,4.51,3.88
7808,4.51,3.88
7809,4.51,3.88
7810,4.51,3.88
7811,4.51,3.88
7813,4.51,3.88
7814,4.51,3.88
7815,4.51,3.88
7816,4.51,3.88
7817,4.51,3.88
7818,4.51,3.88
7819,4.51,3.88
7820,4.51,3.88
7822,4.51,3.88
7823,4.51,3.88
7824,4.51,3.88
7825,4.51,3.88
7826,4.51,3.88
7827,4.51,3.88
7828,4.51,3.88
7830,4.51,3.88
7831,4.51,3.88
7832,4.51,3.88
7833,4.51,3.88
7834,4.51,3.88
7835,4.51,3.88
7836,4.51,3.88
7837,4.51,3.88
7839,4.51,3.88
7840,4.51,3.88
7841,4.51,3.88
7842,4.51,3.88
7843,4.51,3.88
7844,4.51,3.88
7845,4.51,3.88
7847,4.51,3.88
7848,4.51,3.88
7849,4.51,3.88
7851,4.51,3.88
7852,4.51,3.88
7853,4.51,3.88
7854,4.51,3.88
7855,4.51,3.88
7857,4.51,3.88
7858,4.51,3.88
7859,4.51,3.88
7860,4.51,3.88
7861,4.51,3.88
7862,4.51,3.88
7863,4.51,3.88
7864,4.51,3.88
7866,4.51,3.88
7867,4.51,3.88
7868,4.51,3.88
7869,4.51,3.88
7870,4.51,3.88
7871,4.51,3.88
7872,4.51,3.88
7873,4.51,3.88
7875,4.51,3.88
7876,4.51,3.88
7877,4.51,3.88
7878,4.51,3.88
7879,4.51,3.88
7880,4.51,3.88
7881,4.51,3.88
7883,4.51,3.88
7884,4.51,3.88
7885,4.51,3.88
7886,4.51,3.88
7887,4.51,3.88
7888,4.51,3.88
7889,4.51,3.88
7890,4.51,3.88
7892,4.51,3.88
7894,4.51,3.88
7895,4.51,3.88
7896,4.51,3.88
7897,4.51,3.88
7898,4.51,3.88
7899,4.51,3.88
7900,4.51,3.88
7902,4.51,3.88
7903,4.51,3.88
7904,4.51,3.88
7905,4.51,3.88
7906,4.51,3.88
7907,4.51,3.88
7908,4.51,3.88
7909,4.51,3.88
7911,4.51,3.88
7912,4.51,3.88
7913,4.51,3.88
7914,4.51,3.88
7915,4.51,3.88
7916,4.51,3.88
7917,4.51,3.88
7918,4.51,3.88
7920,4.51,3.88
7921,4.51,3.88
7922,4.51,3.88
7923,4.51,3.88
7924,4.51,3.88
7925,4.51,3.88
7926,4.51,3.88
7927,4.51,3.88
7929,4.51,3.88
7930,4.51,3.88
7931,4.51,3.88
7932,4.51,3.88
7933,4.51,3.88
7934,4.51,3.88
7936,4.51,3.88
7937,4.51,3.88
7939,4.51,3.88
7940,4.51,3.88
7941,4.51,3.88
7942,4.51,3.88
7943,4.51,3.88
7944,4.51,3.88
7945,4.51,3.88
7946,4.51,3.88
7948,4.51,3.89
7949,4.51,3.88
7950,4.51,3.88
7951,4.51,3.89
7952,4.51,3.88
7953,4.51,3.88
7954,4.51,3.88
7955,4.51,3.88
7957,4.51,3.89
7958,4.51,3.89
7959,4.51,3.88
7960,4.51,3.88
7961,4.51,3.88
7962,4.51,3.88
7963,4.51,3.88
7964,4.51,3.89
7966,4.51,3.88
7967,4.51,3.88
7968,4.51,3.88
7969,4.51,3.89
7970,4.51,3.88
7971,4.51,3.88
7972,4.51,3.88
7973,4.51,3.88
7975,4.51,3.89
7976,4.51,3.88
7977,4.51,3.89
7979,4.51,3.89
7980,4.51,3.89
7981,4.51,3.89
7982,4.51,3.89
7983,4.51,3.89
7985,4.51,3.89
7986,4.51,3.89
7987,4.51,3.89
7988,4.51,3.89
7989,4.51,3.89
7990,4.51,3.89
7991,4.51,3.89
7993,4.51,3.89
7994,4.51,3.89
7995,4.51,3.89
7996,4.51,3.89
7997,4.51,3.89
7998,4.51,3.89
7999,4.51,3.89
8001,4.51,3.89
8002,4.51,3.89
8003,4.51,3.89
8004,4.51,3.89
8005,4.51,3.89
8006,4.51,3.89
8007,4.51,3.89
8008,4.51,3.89
8010,4.51,3.89
8011,4.51,3.89
8012,4.51,3.89
8013,4.51,3.89
8014,4.51,3.89
8015,4.51,3.89
8016,4.51,3.89
8018,4.51,3.89
8019,4.51,3.89
8020,4.51,3.89
8022,4.51,3.89
8023,4.51,3.89
8024,4.51,3.89
8025,4.51,3.89
8026,4.51,3.89
8028,4.51,3.89
8029,4.51,3.89
8030,4.51,3.89
8031,4.51,3.89
8032,4.51,3.89
8033,4.51,3.89
8034,4.51,3.89
8036,4.51,3.89
8037,4.51,3.89
8038,4.51,3.89
8039,4.51,3.89
8040,4.51,3.89
8041,4.51,3.89
8042,4.51,3.89
8043,4.51,3.89
8045,4.51,3.89
8046,4.51,3.89
8047,4.51,3.89
8048,4.51,3.89
8049,4.51,3.89
8050,4.51,3.89
8051,4.51,3.89
8053,4.51,3.89
8054,4.51,3.89
8055,4.51,3.89
8056,4.51,3.89
8057,4.51,3.89
8058,4.51,3.89
8059,4.51,3.89
8060,4.51,3.89
8062,4.51,3.89
8064,4.51,3.89
8065,4.51,3.89
8066,4.51,3.89
8067,4.51,3.89
8068,4.51,3.89
8069,4.51,3.89
8070,4.51,3.89
8072,4.51,3.89
8073,4.51,3.89
8074,4.51,3.89
8075,4.51,3.89
8076,4.51,3.89
8077,4.51,3.89
8078,4.51,3.89
8080,4.51,3.89
8081,4.51,3.89
8082,4.51,3.89
8083,4.51,3.89
8084,4.51,3.89
8085,4.51,3.89
8086,4.51,3.89
8087,4.51,3.89
8089,4.51,3.89
8090,4.51,3.89
8091,4.51,3.89
8092,4.51,3.89
8093,4.51,3.89
8094,4.51,3.89
8095,4.51,3.89
8097,4.51,3.89
8098,4.51,3.89
8099,4.51,3.89
8100,4.51,3.89
8101,4.51,3.89
8102,4.51,3.89
8103,4.51,3.89
8104,4.51,3.89
8107,4.51,3.89
8108,4.51,3.89
8109,4.51,3.89
8110,4.51,3.89
8111,4.51,3.89
8112,4.51,3.89
8113,4.51,3.89
8114,4.51,3.89
8116,4.51,3.89
8117,4.51,3.89
8118,4.51,3.89
8119,4.51,3.89
8120,4.51,3.89
8121,4.51,3.89
8122,4.51,3.89
8124,4.51,3.89
8125,4.51,3.89
8126,4.51,3.89
8127,4.51,3.89
8128,4.51,3.89
8129,4.51,3.89
8130,4.51,3.89
8131,4.51,3.89
8133,4.51,3.89
8134,4.51,3.89
8135,4.51,3.89
8136,4.51,3.89
8137,4.51,3.89
8138,4.51,3.89
8139,4.51,3.89
8140,4.51,3.89
8142,4.51,3.89
8143,4.51,3.89
8144,4.51,3.89
8145,4.51,3.89
8146,4.51,3.89
8147,4.51,3.89
8148,4.51,3.89
8150,4.51,3.89
8152,4.51,3.89
8153,4.51,3.89
8154,4.51,3.89
8155,4.51,3.89
8156,4.51,3.89
8157,4.51,3.89
8158,4.51,3.90
8159,4.51,3.90
8161,4.51,3.90
8162,4.51,3.90
8163,4.51,3.90
8164,4.51,3.90
8165,4.51,3.90
8166,4.51,3.90
8167,4.51,3.90
8168,4.51,3.90
8170,4.51,3.90
8171,4.51,3.90
8172,4.51,3.90
8173,4.51,3.90
8174,4.51,3.90
8175,4.51,3.90
8176,4.51,3.90
8177,4.51,3.90
8179,4.51,3.90
8180,4.51,3.90
8181,4.51,3.90
8182,4.51,3.90
8183,4.51,3.90
8184,4.51,3.90
8185,4.51,3.90
8186,4.51,3.90
8188,4.51,3.90
8189,4.51,3.90
8190,4.51,3.90
8192,4.51,3.90
8193,4.51,3.90
8194,4.51,3.90
8195,4.51,3.90
8196,4.51,3.90
8198,4.51,3.90
8199,4.51,3.90
8200,4.51,3.90
8201,4.51,3.90
8202,4.51,3.90
8203,4.51,3.90
8204,4.51,3.90
8205,4.51,3.90
8207,4.51,3.90
8208,4.51,3.90
8209,4.51,3.90
8210,4.51,3.90
8211,4.51,3.90
8212,4.51,3.90
8213,4.51,3.90
8214,4.51,3.90
8216,4.51,3.90
8217,4.51,3.90
8218,4.51,3.90
8219,4.51,3.90
8220,4.51,3.90
8221,4.51,3.90
8222,4.51,3.90
8223,4.51,3.90
8225,4.51,3.90
8226,4.51,3.90
8227,4.51,3.90
8228,4.51,3.90
8229,4.51,3.90
8230,4.51,3.90
8231,4.51,3.90
8232,4.51,3.90
8235,4.51,3.90
8236,4.51,3.90
8237,4.51,3.89
8238,4.51,3.89
8239,4.51,3.89
8240,4.51,3.89
8241,4.51,3.89
8242,4.51,3.89
8244,4.51,3.89
8245,4.51,3.89
8246,4.51,3.89
8247,4.51,3.89
8248,4.51,3.89
8249,4.51,3.89
8250,4.51,3.89
8251,4.51,3.89
8253,4.51,3.89
8254,4.51,3.89
8255,4.51,3.89
8256,4.51,3.89
8257,4.51,3.89
8258,4.51,3.89
8259,4.51,3.89
8260,4.51,3.90
8262,4.51,3.90
8263,4.51,3.90
8264,4.51,3.90
8265,4.51,3.90
8266,4.51,3.90
8267,4.51,3.90
8268,4.51,3.90
8269,4.51,3.90
8271,4.51,3.90
8272,4.51,3.90
8273,4.51,3.90
8274,4.51,3.90
8275,4.51,3.90
8276,4.51,3.91
8278,4.51,3.91
8279,4.51,3.91
8281,4.51,3.91
8282,4.51,3.91
8283,4.51,3.91
8284,4.51,3.91
8285,4.51,3.91
8286,4.51,3.91
8287,4.51,3.91
8289,4.51,3.91
8290,4.51,3.91
8291,4.51,3.91
8292,4.51,3.91
8293,4.51,3.91
8294,4.51,3.91
8295,4.51,3.91
8296,4.51,3.92
8298,4.51,3.92
8299,4.51,3.92
8300,4.51,3.92
8301,4.51,3.92
8302,4.51,3.92
8303,4.51,3.92
8304,4.51,3.92
8305,4.51,3.92
8307,4.51,3.93
8308,4.51,3.93
8309,4.51,3.93
8310,4.51,3.93
8311,4.51,3.93
8312,4.51,3.93
8313,4.51,3.93
8315,4.51,3.93
8316,4.51,3.93
8317,4.51,3.93
8318,4.51,3.93
8320,4.51,3.93
8321,4.51,3.93
8322,4.51,3.94
8323,4.51,3.94
8325,4.51,3.94
8326,4.51,3.94
8327,4.51,3.94
8328,4.51,3.94
8329,4.51,3.94
8330,4.51,3.94
8331,4.51,3.94
8332,4.51,3.94
8334,4.51,3.94
8335,4.51,3.94
8336,4.51,3.95
8337,4.51,3.94
8338,4.51,3.94
8339,4.51,3.94
8340,4.51,3.94
8341,4.51,3.95
8343,4.51,3.95
8344,4.51,3.95
8345,4.51,3.95
8346,4.51,3.95
8347,4.51,3.95
8348,4.51,3.95
8349,4.51,3.95
8350,4.51,3.95
8352,4.51,3.95
8353,4.51,3.95
8354,4.51,3.95
8355,4.51,3.95
8356,4.51,3.95
8357,4.51,3.95
8358,4.51,3.95
8359,4.51,3.96
8361,4.51,3.95
8363,4.51,3.95
8364,4.51,3.96
8365,4.51,3.96
8366,4.51,3.96
8367,4.51,3.96
8368,4.51,3.96
8369,4.51,3.96
8371,4.51,3.96
8372,4.51,3.96
8373,4.51,3.96
8374,4.51,3.96
8375,4.51,3.96
8376,4.51,3.96
8377,4.51,3.96
8378,4.51,3.97
8380,4.51,3.97
8381,4.51,3.97
8382,4.51,3.97
8383,4.51,3.97
8384,4.51,3.97
8385,4.51,3.97
8386,4.51,3.97
8387,4.51,3.97
8389,4.51,3.97
8390,4.51,3.97
8391,4.51,3.97
8392,4.51,3.98
8393,4.51,3.98
8394,4.51,3.98
8395,4.51,3.98
8396,4.51,3.98
8398,4.51,3.98
8399,4.51,3.98
8400,4.51,3.98
8401,4.51,3.98
8402,4.51,3.98
8403,4.51,3.98
8404,4.51,3.98
8406,4.51,3.99
8408,4.51,3.99
8409,4.51,3.99
8410,4.51,3.99
8411,4.51,3.99
8412,4.51,3.99
8413,4.51,3.99
8414,4.51,3.99
8415,4.51,3.99
8417,4.51,3.99
8418,4.51,3.99
8419,4.51,3.99
8420,4.51,3.99
8421,4.51,3.99
8422,4.51,3.99
8423,4.51,3.99
8424,4.51,3.99
8426,4.51,3.99
8427,4.51,3.99
8428,4.51,3.99
8429,4.51,3.99
8430,4.51,3.99
8431,4.51,3.99
8432,4.51,3.99
8433,4.51,3.99
8435,4.51,3.99
8436,4.51,3.99
8437,4.51,3.99
8438,4.51,3.99
8439,4.51,3.99
8440,4.51,3.99
8441,4.51,3.99
8442,4.51,3.99
8444,4.51,3.99
8445,4.51,3.99
8446,4.51,3.99
8448,4.51,3.99
8449,4.51,3.99
8450,4.51,3.99
8451,4.51,3.99
8452,4.51,3.99
8454,4.51,3.99
8455,4.51,3.99
8456,4.51,3.99
8457,4.51,3.99
8458,4.51,3.99
8459,4.51,3.99
8460,4.51,3.99
8461,4.51,3.99
8463,4.51,3.99
8464,4.51,3.99
8465,4.51,3.99
8466,4.51,3.99
8467,4.51,3.99
8468,4.51,3.99
8469,4.51,3.99
8470,4.51,3.99
8472,4.51,3.99
8473,4.51,3.99
8474,4.51,3.99
8475,4.51,3.99
8476,4.51,3.99
8477,4.51,3.99
8478,4.51,3.99
8479,4.51,3.99
8481,4.51,3.99
8482,4.51,3.99
8483,4.51,3.99
8484,4.51,3.99
8485,4.51,3.99
8486,4.51,4.00
8487,4.51,3.99
8488,4.51,3.99
8491,4.51,3.99
8492,4.51,3.99
8493,4.51,3.99
8494,4.51,3.99
8495,4.51,3.99
8496,4.51,3.99
8497,4.51,3.99
8498,4.51,3.99
8500,4.51,3.99
8501,4.51,3.99
8502,4.51,3.99
8503,4.51,3.99
8504,4.51,3.99
8505,4.51,3.99
8506,4.51,3.99
8507,4.51,3.99
8509,4.51,3.99
8510,4.51,3.99
8511,4.51,3.99
8512,4.51,3.99
8513,4.51,3.99
8514,4.51,3.99
8515,4.51,3.99
8516,4.51,3.99
8518,4.51,3.99
8519,4.51,3.99
8520,4.52,3.98
8521,4.51,3.98
8522,4.51,3.98
8523,4.52,3.98
8524,4.51,3.98
8525,4.51,3.98
8527,4.52,3.98
8528,4.51,3.98
8529,4.51,3.98
8530,4.52,3.98
8531,4.51,3.98
8532,4.51,3.98
8534,4.51,3.98
8535,4.51,3.98
8537,4.51,3.98
8538,4.51,3.98
8539,4.51,3.98
8540,4.51,3.98
8541,4.51,3.97
8542,4.51,3.98
8543,4.51,3.97
8544,4.51,3.97
8546,4.51,3.97
8547,4.51,3.97
8548,4.51,3.97
8549,4.51,3.97
8550,4.51,3.97
8551,4.51,3.97
8552,4.51,3.97
8553,4.51,3.97
8555,4.51,3.97
8556,4.51,3.97
8557,4.51,3.97
8558,4.51,3.97
8559,4.51,3.97
8560,4.51,3.97
8561,4.51,3.97
8562,4.51,3.96
8564,4.51,3.97
8565,4.51,3.97
8566,4.51,3.96
8567,4.51,3.97
8568,4.51,3.96
8569,4.51,3.96
8570,4.51,3.96
8571,4.51,3.96
8573,4.51,3.96
8574,4.51,3.96
8576,4.51,3.96
8577,4.51,3.96
8578,4.51,3.96
8579,4.51,3.96
8580,4.51,3.96
8581,4.51,3.96
8583,4.51,3.96
8584,4.51,3.96
8585,4.51,3.96
8586,4.51,3.96
8587,4.51,3.96
8588,4.51,3.96
8589,4.51,3.96
8590,4.51,3.96
8592,4.51,3.96
8593,4.51,3.96
8594,4.52,3.96
8595,4.51,3.96
8596,4.52,3.96
8597,4.52,3.96
8598,4.51,3.96
8599,4.52,3.96
8601,4.52,3.96
8602,4.52,3.96
8603,4.52,3.96
8604,4.52,3.96
8605,4.52,3.97
8606,4.52,3.97
8607,4.52,3.97
8608,4.52,3.97
8610,4.52,3.97
8611,4.52,3.97
8612,4.52,3.97
8613,4.52,3.97
8614,4.52,3.97
8615,4.52,3.97
8616,4.52,3.97
8617,4.52,3.97
8620,4.52,3.97
8621,4.52,3.97
8622,4.52,3.97
8623,4.52,3.97
8624,4.52,3.97
8625,4.52,3.97
8626,4.52,3.97
8627,4.52,3.97
8629,4.52,3.97
8630,4.52,3.97
8631,4.52,3.97
8632,4.52,3.97
8633,4.52,3.97
8634,4.52,3.97
8635,4.52,3.97
8636,4.52,3.97
8638,4.52,3.97
8639,4.52,3.97
8640,4.52,3.97
8641,4.52,3.97
8642,4.52,3.97
8643,4.52,3.97
8644,4.52,3.97
8645,4.52,3.97
8647,4.52,3.98
8648,4.52,3.97
8649,4.52,3.97
8650,4.52,3.97
8651,4.52,3.97
8652,4.52,3.98
8653,4.52,3.97
8654,4.52,3.98
8656,4.52,3.98
8657,4.52,3.97
8658,4.52,3.98
8659,4.52,3.98
8660,4.52,3.98
8662,4.52,3.98
8663,4.52,3.98
8664,4.52,3.98
8666,4.52,3.98
8667,4.52,3.98
8668,4.52,3.98
8669,4.52,3.98
8670,4.52,3.98
8671,4.52,3.98
8672,4.52,3.98
8673,4.52,3.98
8675,4.52,3.98
8676,4.52,3.98
8677,4.52,3.98
8678,4.52,3.98
8679,4.52,3.98
8680,4.52,3.98
8681,4.52,3.98
8682,4.52,3.98
8684,4.52,3.98
8685,4.52,3.98
8686,4.52,3.98
8687,4.52,3.98
8688,4.52,3.98
8689,4.52,3.98
8690,4.52,3.98
8691,4.52,3.98
8693,4.52,3.98
8694,4.52,3.98
8695,4.52,3.98
8696,4.52,3.98
8697,4.52,3.98
8698,4.52,3.98
8699,4.52,3.98
8700,4.52,3.98
8702,4.52,3.98
8704,4.52,3.98
8705,4.52,3.98
8706,4.52,3.98
8707,4.52,3.98
8708,4.52,3.98
8709,4.52,3.98
8710,4.52,3.98
8712,4.52,3.98
8713,4.52,3.98
8714,4.52,3.98
8715,4.52,3.98
8716,4.52,3.98
8717,4.52,3.98
8718,4.52,3.98
8720,4.52,3.98
8721,4.52,3.98
8722,4.52,3.98
8723,4.52,3.98
8724,4.52,3.98
8725,4.52,3.98
8726,4.52,3.98
8727,4.52,3.98
8729,4.52,3.98
8730,4.52,3.98
8731,4.52,3.98
8732,4.52,3.98
8733,4.52,3.98
8734,4.52,3.98
8735,4.52,3.98
8736,4.52,3.98
8738,4.52,3.98
8739,4.52,3.98
8740,4.52,3.98
8741,4.52,3.98
8742,4.52,3.98
8743,4.52,3.98
8744,4.52,3.98
8745,4.52,3.98
8748,4.52,3.98
8749,4.52,3.98
8750,4.52,3.98
8751,4.52,3.98
