time_ms,ch1_v,ch2_v
54368,1.90,3.30
54368,1.91,3.30
54368,1.90,3.30
54369,1.91,3.30
54369,1.90,3.30
54369,1.90,3.30
54370,1.91,3.30
54370,1.90,3.30
54370,1.91,3.30
54371,1.90,3.30
54371,1.91,3.30
54371,1.90,3.30
54371,1.90,3.30
54372,1.90,3.30
54372,1.90,3.30
54372,1.91,3.30
54373,1.90,3.30
54373,1.90,3.30
54373,1.91,3.30
54374,1.91,3.30
54374,1.91,3.30
54374,1.91,3.30
54374,1.91,3.30
54375,1.91,3.30
54375,1.90,3.30
54375,1.90,3.30
54376,1.91,3.30
54376,1.90,3.30
54376,1.90,3.30
54377,1.90,3.30
54377,1.91,3.30
54377,1.89,3.30
54377,1.90,3.30
54378,1.91,3.30
54378,1.90,3.30
54378,1.91,3.30
54379,1.91,3.30
54379,1.90,3.30
54379,1.90,3.30
54380,1.90,3.30
54380,1.89,3.30
54380,1.91,3.30
54381,1.90,3.30
54381,1.90,3.30
54381,1.91,3.30
54381,1.90,3.30
54382,1.91,3.30
54382,1.90,3.30
54382,1.90,3.30
54383,1.90,3.30
54383,1.90,3.30
54383,1.90,3.30
54384,1.90,3.30
54384,1.90,3.30
54384,1.90,3.30
54384,1.90,3.30
54385,1.89,3.30
54385,1.90,3.30
54385,1.90,3.30
54386,1.90,3.30
54386,1.90,3.30
54386,1.92,3.30
54387,1.90,3.30
54387,1.90,3.30
54387,1.90,3.30
54387,1.90,3.30
54388,1.90,3.30
54388,1.90,3.30
54388,1.90,3.30
54389,1.90,3.30
54389,1.90,3.30
54389,1.90,3.30
54390,1.90,3.30
54390,1.90,3.30
54390,1.89,3.30
54390,1.90,3.30
54391,1.90,3.30
54391,1.90,3.30
54391,1.90,3.30
54392,1.90,3.30
54392,1.90,3.30
54392,1.90,3.30
54393,1.90,3.30
54393,1.90,3.30
54393,1.91,3.30
54393,1.90,3.30
54394,1.90,3.30
54394,1.90,3.30
54394,1.90,3.30
54395,1.90,3.30
54395,1.90,3.30
54395,1.90,3.30
54396,1.90,3.30
54396,1.90,3.30
54396,1.90,3.30
54397,1.90,3.30
54397,1.90,3.30
54397,1.90,3.30
54397,1.91,3.30
54398,1.90,3.30
54398,1.90,3.30
54398,1.90,3.30
54399,1.90,3.30
54399,1.90,3.30
54399,1.90,3.30
54400,1.89,3.30
54400,1.90,3.30
54400,1.90,3.30
54400,1.89,3.30
54401,1.87,3.30
54401,1.91,3.30
54401,1.89,3.30
54402,1.90,3.30
54402,1.90,3.30
54402,1.90,3.30
54403,1.90,3.30
54403,1.90,3.30
54403,1.90,3.30
54403,1.89,3.30
54404,1.89,3.30
54404,1.90,3.30
54404,1.90,3.30
54405,1.90,3.30
54405,1.91,3.30
54405,1.89,3.30
54406,1.90,3.30
54406,1.89,3.30
54406,1.90,3.30
54406,1.90,3.30
54407,1.90,3.30
54407,1.89,3.30
54407,1.89,3.30
54408,1.89,3.30
54408,1.89,3.30
54408,1.90,3.30
54409,1.90,3.30
54409,1.89,3.30
54409,1.90,3.30
54409,1.89,3.30
54410,1.90,3.30
54410,1.90,3.30
54410,1.88,3.30
54411,1.90,3.30
54411,1.90,3.30
54411,1.90,3.30
54412,1.89,3.30
54412,1.89,3.30
54412,1.92,3.30
54412,1.89,3.30
54413,1.90,3.30
54413,1.89,3.30
54413,1.89,3.30
54414,1.89,3.30
54414,1.89,3.30
54414,1.89,3.30
54415,1.89,3.30
54415,1.89,3.30
54415,1.89,3.30
54416,1.90,3.30
54416,1.89,3.30
54416,1.91,3.30
54416,1.89,3.30
54417,1.89,3.30
54417,1.89,3.30
54417,1.90,3.30
54418,1.89,3.30
54418,1.89,3.30
54418,1.89,3.30
54419,1.90,3.30
54419,1.89,3.30
54419,1.89,3.30
54419,1.89,3.30
54420,1.88,3.30
54420,1.89,3.30
54420,1.89,3.30
54421,1.89,3.30
54421,1.89,3.30
54421,1.89,3.30
54422,1.89,3.30
54422,1.89,3.30
54422,1.89,3.30
54422,1.88,3.30
54423,1.89,3.30
54423,1.89,3.30
54423,1.89,3.30
54424,1.89,3.30
54424,1.89,3.30
54424,1.89,3.30
54425,1.89,3.30
54425,1.89,3.30
54425,1.89,3.30
54425,1.89,3.30
54426,1.88,3.30
54426,1.89,3.30
54426,1.90,3.30
54427,1.89,3.30
54427,1.89,3.30
54427,1.89,3.30
54428,1.89,3.30
54428,1.89,3.30
54428,1.89,3.30
54428,1.89,3.30
54429,1.89,3.30
54429,1.89,3.30
54429,1.89,3.30
54430,1.89,3.30
54430,1.89,3.30
54430,1.89,3.30
54431,1.90,3.30
54431,1.89,3.30
54431,1.90,3.30
54432,1.89,3.30
54432,1.88,3.30
54432,1.89,3.30
54432,1.89,3.30
54433,1.89,3.30
54433,1.88,3.30
54433,1.89,3.30
54434,1.88,3.30
54434,1.89,3.30
54434,1.88,3.30
54435,1.89,3.30
54435,1.88,3.30
54435,1.89,3.30
54435,1.88,3.30
54436,1.89,3.30
54436,1.89,3.30
54436,1.89,3.30
54437,1.89,3.30
54437,1.89,3.30
54437,1.88,3.30
54438,1.88,3.30
54438,1.89,3.30
54438,1.89,3.30
54438,1.89,3.30
54439,1.89,3.30
54439,1.88,3.30
54439,1.89,3.30
54440,1.88,3.30
54440,1.89,3.30
54440,1.89,3.30
54441,1.89,3.30
54441,1.88,3.30
54441,1.88,3.30
54441,1.88,3.30
54442,1.88,3.30
54442,1.89,3.30
54442,1.88,3.30
54443,1.89,3.30
54443,1.88,3.30
54443,1.89,3.30
54444,1.87,3.30
54444,1.88,3.30
54444,1.89,3.30
54444,1.89,3.30
54445,1.88,3.30
54445,1.89,3.30
54445,1.88,3.30
54446,1.89,3.30
54446,1.89,3.30
54446,1.89,3.30
54447,1.89,3.30
54447,1.88,3.30
54447,1.89,3.30
54448,1.88,3.30
54448,1.89,3.30
54448,1.88,3.30
54448,1.88,3.30
54449,1.88,3.30
54449,1.89,3.30
54449,1.89,3.30
54450,1.89,3.30
54450,1.89,3.30
54450,1.88,3.30
54451,1.88,3.30
54451,1.88,3.30
54451,1.89,3.30
54451,1.88,3.30
54452,1.89,3.30
54452,1.88,3.30
54452,1.89,3.30
54453,1.89,3.30
54453,1.88,3.30
54453,1.88,3.30
54454,1.89,3.30
54454,1.88,3.30
54454,1.88,3.30
54454,1.89,3.30
54455,1.88,3.30
54455,1.89,3.30
54455,1.88,3.30
54456,1.88,3.30
54456,1.87,3.30
54456,1.88,3.30
54457,1.88,3.30
54457,1.88,3.30
54457,1.89,3.30
54457,1.88,3.30
54458,1.88,3.30
54458,1.88,3.30
54458,1.88,3.30
54459,1.88,3.30
54459,1.89,3.30
54459,1.88,3.30
54460,1.88,3.30
54460,1.88,3.30
54460,1.88,3.30
54460,1.88,3.30
54461,1.88,3.30
54461,1.88,3.30
54461,1.88,3.30
54462,1.88,3.30
54462,1.88,3.30
54462,1.88,3.30
54463,1.88,3.30
54463,1.89,3.30
54463,1.88,3.30
54464,1.88,3.30
54464,1.88,3.30
54464,1.88,3.30
54464,1.87,3.30
54465,1.88,3.30
54465,1.89,3.30
54465,1.88,3.30
54466,1.88,3.30
54466,1.88,3.30
54466,1.88,3.30
54467,1.88,3.30
54467,1.88,3.30
54467,1.88,3.30
54467,1.88,3.30
54468,1.88,3.30
54468,1.87,3.30
54468,1.88,3.30
54469,1.88,3.30
54469,1.88,3.30
54469,1.87,3.30
54470,1.87,3.30
54470,1.87,3.30
54470,1.88,3.30
54470,1.88,3.30
54471,1.88,3.30
54471,1.87,3.30
54471,1.88,3.30
54472,1.87,3.30
54472,1.87,3.30
54472,1.87,3.30
54473,1.87,3.30
54473,1.87,3.30
54473,1.87,3.30
54473,1.87,3.30
54474,1.87,3.30
54474,1.88,3.30
54474,1.87,3.30
54475,1.87,3.30
54475,1.87,3.29
54475,1.87,3.29
54476,1.87,3.28
54476,1.87,3.28
54476,1.86,3.27
54476,1.87,3.27
54477,1.87,3.27
54477,1.87,3.26
54477,1.87,3.25
54478,1.86,3.25
54478,1.87,3.24
54478,1.86,3.24
54479,1.86,3.23
54479,1.86,3.22
54479,1.87,3.22
54480,1.86,3.21
54480,1.86,3.21
54480,1.86,3.21
54480,1.85,3.19
54481,1.85,3.20
54481,1.86,3.19
54481,1.85,3.18
54482,1.86,3.17
54482,1.85,3.16
54482,1.86,3.16
54483,1.85,3.15
54483,1.85,3.15
54483,1.85,3.14
54483,1.85,3.14
54484,1.85,3.13
54484,1.85,3.13
54484,1.85,3.12
54485,1.84,3.12
54485,1.85,3.11
54485,1.84,3.10
54486,1.84,3.10
54486,1.84,3.09
54486,1.85,3.09
54486,1.84,3.08
54487,1.84,3.08
54487,1.84,3.08
54487,1.84,3.07
54488,1.84,3.06
54488,1.84,3.06
54488,1.83,3.05
54489,1.83,3.04
54489,1.83,3.04
54489,1.83,3.03
54489,1.83,3.03
54490,1.83,3.03
54490,1.83,3.02
54490,1.82,3.02
54491,1.83,3.02
54491,1.82,3.00
54491,1.82,3.00
54492,1.82,3.00
54492,1.82,3.00
54492,1.82,2.99
54492,1.82,2.98
54493,1.82,2.98
54493,1.82,2.97
54493,1.82,2.97
54494,1.82,2.97
54494,1.82,2.96
54494,1.81,2.96
54495,1.81,2.95
54495,1.82,2.95
54495,1.81,2.95
54496,1.81,2.95
54496,1.80,2.94
54496,1.81,2.93
54496,1.81,2.93
54497,1.80,2.93
54497,1.81,2.93
54497,1.81,2.92
54498,1.80,2.92
54498,1.81,2.92
54498,1.80,2.91
54499,1.80,2.91
54499,1.80,2.90
54499,1.80,2.91
54499,1.80,2.90
54500,1.81,2.90
54500,1.80,2.88
54500,1.79,2.88
54501,1.80,2.88
54501,1.79,2.88
54501,1.79,2.88
54502,1.80,2.87
54502,1.79,2.87
54502,1.79,2.87
54502,1.79,2.86
54503,1.79,2.86
54503,1.78,2.86
54503,1.79,2.85
54504,1.79,2.85
54504,1.79,2.85
54504,1.78,2.85
54505,1.79,2.85
54505,1.79,2.84
54505,1.78,2.84
54505,1.78,2.83
54506,1.79,2.83
54506,1.78,2.84
54506,1.78,2.83
54507,1.78,2.83
54507,1.78,2.82
54507,1.78,2.82
54508,1.78,2.82
54508,1.78,2.82
54508,1.78,2.82
54509,1.78,2.81
54509,1.78,2.81
54509,1.78,2.81
54509,1.78,2.81
54510,1.78,2.81
54510,1.78,2.81
54510,1.78,2.80
54511,1.76,2.80
54511,1.78,2.80
54511,1.77,2.80
54512,1.77,2.80
54512,1.78,2.79
54512,1.77,2.80
54512,1.77,2.79
54513,1.77,2.80
54513,1.76,2.79
54513,1.78,2.79
54514,1.77,2.79
54514,1.77,2.79
54514,1.77,2.79
54515,1.77,2.78
54515,1.78,2.79
54515,1.77,2.78
54515,1.77,2.78
54516,1.77,2.78
54516,1.78,2.78
54516,1.77,2.77
54517,1.78,2.78
54517,1.77,2.78
54517,1.77,2.77
54518,1.77,2.77
54518,1.78,2.77
54518,1.77,2.77
54518,1.78,2.77
54519,1.77,2.77
54519,1.77,2.77
54519,1.77,2.77
54520,1.77,2.77
54520,1.77,2.77
54520,1.77,2.77
54521,1.77,2.77
54521,1.78,2.77
54521,1.77,2.77
54521,1.77,2.77
54522,1.77,2.77
54522,1.77,2.77
54522,1.77,2.77
54523,1.78,2.76
54523,1.77,2.77
54523,1.77,2.74
54524,1.77,2.76
54524,1.77,2.76
54524,1.77,2.76
54525,1.78,2.76
54525,1.79,2.77
54525,1.77,2.77
54525,1.78,2.76
54526,1.78,2.77
54526,1.77,2.77
54526,1.78,2.77
54527,1.77,2.77
54527,1.79,2.76
54527,1.78,2.77
54528,1.78,2.77
54528,1.78,2.77
54528,1.79,2.77
54528,1.78,2.77
54529,1.79,2.77
54529,1.78,2.77
54529,1.78,2.77
54530,1.78,2.78
54530,1.78,2.77
54530,1.78,2.78
54531,1.79,2.78
54531,1.79,2.78
54531,1.79,2.78
54531,1.79,2.78
54532,1.79,2.78
54532,1.79,2.79
54532,1.79,2.79
54533,1.80,2.79
54533,1.79,2.79
54533,1.79,2.79
54534,1.79,2.79
54534,1.79,2.80
54534,1.79,2.80
54534,1.79,2.80
54535,1.79,2.80
54535,1.80,2.80
54535,1.80,2.81
54536,1.80,2.81
54536,1.79,2.81
54536,1.80,2.81
54537,1.80,2.82
54537,1.80,2.82
54537,1.81,2.83
54538,1.80,2.83
54538,1.80,2.83
54538,1.81,2.83
54538,1.81,2.84
54539,1.81,2.84
54539,1.81,2.85
54539,1.81,2.85
54540,1.81,2.85
54540,1.81,2.86
54540,1.82,2.87
54541,1.81,2.87
54541,1.81,2.88
54541,1.82,2.88
54541,1.82,2.89
54542,1.81,2.90
54542,1.82,2.90
54542,1.82,2.90
54543,1.82,2.92
54543,1.82,2.92
54543,1.82,2.93
54544,1.82,2.93
54544,1.84,2.93
54544,1.83,2.94
54544,1.83,2.95
54545,1.83,2.95
54545,1.83,2.95
54545,1.84,2.95
54546,1.83,2.97
54546,1.83,2.97
54546,1.84,2.97
54547,1.84,2.97
54547,1.84,2.97
54547,1.84,2.98
54547,1.84,2.98
54548,1.84,2.99
54548,1.84,2.99
54548,1.84,2.99
54549,1.85,3.00
54549,1.84,3.00
54549,1.84,3.00
54550,1.85,3.01
54550,1.85,3.01
54550,1.85,3.01
54550,1.85,3.02
54551,1.85,3.02
54551,1.85,3.02
54551,1.86,3.02
54552,1.85,3.03
54552,1.86,3.03
54552,1.86,3.03
54553,1.86,3.03
54553,1.86,3.03
54553,1.86,3.04
54554,1.86,3.03
54554,1.86,3.04
54554,1.86,3.04
54554,1.86,3.05
54555,1.86,3.05
54555,1.86,3.05
54555,1.86,3.05
54556,1.86,3.05
54556,1.87,3.05
54556,1.86,3.06
54557,1.87,3.05
54557,1.87,3.06
54557,1.87,3.07
54557,1.87,3.06
54558,1.87,3.06
54558,1.87,3.06
54558,1.87,3.07
54559,1.86,3.07
54559,1.87,3.07
54559,1.87,3.08
54560,1.87,3.08
54560,1.87,3.08
54560,1.87,3.08
54560,1.87,3.08
54561,1.87,3.09
54561,1.87,3.08
54561,1.87,3.09
54562,1.87,3.08
54562,1.87,3.09
54562,1.87,3.10
54563,1.87,3.10
54563,1.87,3.09
54563,1.88,3.10
54563,1.87,3.10
54564,1.88,3.10
54564,1.87,3.10
54564,1.88,3.11
54565,1.87,3.11
54565,1.88,3.11
54565,1.88,3.12
54566,1.88,3.12
54566,1.88,3.11
54566,1.88,3.12
54566,1.88,3.12
54567,1.88,3.13
54567,1.88,3.13
54567,1.88,3.13
54568,1.89,3.13
54568,1.88,3.13
54568,1.88,3.14
54569,1.88,3.14
54569,1.88,3.14
54569,1.89,3.14
54570,1.88,3.14
54570,1.88,3.14
54570,1.88,3.15
54570,1.88,3.15
54571,1.89,3.15
54571,1.89,3.15
54571,1.89,3.15
54572,1.89,3.16
54572,1.89,3.16
54572,1.89,3.16
54573,1.89,3.16
54573,1.89,3.17
54573,1.89,3.17
54573,1.90,3.18
54574,1.89,3.17
54574,1.89,3.17
54574,1.89,3.17
54575,1.89,3.18
54575,1.90,3.18
54575,1.89,3.18
54576,1.90,3.18
54576,1.89,3.19
54576,1.90,3.19
54576,1.90,3.19
54577,1.89,3.19
54577,1.90,3.20
54577,1.90,3.19
54578,1.90,3.19
54578,1.89,3.20
54578,1.90,3.19
54579,1.90,3.20
54579,1.90,3.20
54579,1.90,3.20
54579,1.90,3.21
54580,1.90,3.20
54580,1.90,3.21
54580,1.90,3.20
54581,1.90,3.20
54581,1.90,3.21
54581,1.90,3.21
54582,1.90,3.22
54582,1.90,3.22
54582,1.90,3.21
54582,1.90,3.22
54583,1.90,3.22
54583,1.89,3.22
54583,1.90,3.22
54584,1.90,3.23
54584,1.90,3.23
54584,1.90,3.24
54585,1.87,3.23
54585,1.90,3.24
54585,1.90,3.24
54586,1.90,3.24
54586,1.90,3.24
54586,1.90,3.24
54586,1.90,3.25
54587,1.90,3.24
54587,1.90,3.24
54587,1.90,3.25
54588,1.90,3.25
54588,1.89,3.25
54588,1.90,3.25
54589,1.90,3.25
54589,1.90,3.25
54589,1.90,3.25
54589,1.90,3.26
54590,1.91,3.26
54590,1.90,3.25
54590,1.90,3.26
54591,1.90,3.26
54591,1.90,3.26
54591,1.90,3.26
54592,1.91,3.26
54592,1.91,3.26
54592,1.91,3.28
54592,1.93,3.27
54593,1.90,3.27
54593,1.90,3.28
54593,1.91,3.28
54594,1.90,3.28
54594,1.90,3.28
54594,1.91,3.28
54595,1.91,3.28
54595,1.92,3.28
54595,1.91,3.29
54595,1.91,3.28
54596,1.90,3.28
54596,1.90,3.29
54596,1.90,3.28
54597,1.91,3.29
54597,1.90,3.29
54597,1.90,3.29
54598,1.90,3.30
54598,1.90,3.30
54598,1.90,3.29
54598,1.91,3.30
54599,1.90,3.30
54599,1.90,3.30
54599,1.91,3.30
54600,1.90,3.30
54600,1.91,3.30
54600,1.90,3.30
54601,1.90,3.30
54601,1.91,3.30
54601,1.90,3.30
54602,1.92,3.30
54602,1.90,3.30
54602,1.90,3.30
54602,1.91,3.30
54603,1.91,3.30
54603,1.90,3.30
54603,1.90,3.30
54604,1.91,3.30
54604,1.91,3.30
54604,1.90,3.30
54605,1.91,3.30
54605,1.90,3.30
54605,1.91,3.30
54605,1.91,3.30
54606,1.90,3.30
54606,1.90,3.30
54606,1.90,3.30
54607,1.90,3.30
54607,1.90,3.30
54607,1.90,3.30
54608,1.91,3.30
54608,1.90,3.30
54608,1.90,3.30
54608,1.90,3.30
54609,1.91,3.30
54609,1.90,3.30
54609,1.90,3.30
54610,1.89,3.30
54610,1.90,3.30
54610,1.90,3.30
54611,1.90,3.30
54611,1.90,3.30
54611,1.90,3.30
54611,1.91,3.30
54612,1.91,3.30
54612,1.90,3.30
54612,1.90,3.30
54613,1.91,3.30
54613,1.91,3.30
54613,1.91,3.30
54614,1.90,3.30
54614,1.90,3.30
54614,1.91,3.30
54614,1.91,3.30
54615,1.90,3.30
54615,1.90,3.30
54615,1.90,3.30
54616,1.91,3.30
54616,1.90,3.30
54616,1.90,3.30
54617,1.90,3.30
54617,1.90,3.30
54617,1.89,3.30
54618,1.90,3.30
54618,1.91,3.30
54618,1.90,3.30
54618,1.90,3.30
54619,1.90,3.30
54619,1.90,3.30
54619,1.90,3.30
54620,1.90,3.30
54620,1.90,3.30
54620,1.90,3.30
54621,1.90,3.30
54621,1.89,3.30
54621,1.90,3.30
54621,1.90,3.30
54622,1.90,3.30
54622,1.90,3.30
54622,1.91,3.30
54623,1.90,3.30
54623,1.90,3.30
54623,1.90,3.30
54624,1.91,3.30
54624,1.89,3.30
54624,1.90,3.30
54624,1.90,3.30
54625,1.90,3.30
54625,1.90,3.30
54625,1.90,3.30
54626,1.90,3.30
54626,1.90,3.30
54626,1.90,3.30
54627,1.90,3.30
54627,1.90,3.30
54627,1.89,3.30
54627,1.90,3.30
54628,1.90,3.30
54628,1.90,3.30
54628,1.90,3.30
54629,1.90,3.30
54629,1.89,3.30
54629,1.90,3.30
54630,1.90,3.30
54630,1.90,3.30
54630,1.90,3.30
54630,1.90,3.30
54631,1.90,3.30
54631,1.90,3.30
54631,1.90,3.30
54632,1.90,3.30
54632,1.90,3.30
54632,1.90,3.30
54633,1.90,3.30
54633,1.90,3.30
54633,1.90,3.30
54634,1.90,3.30
54634,1.90,3.30
54634,1.90,3.30
54634,1.90,3.30
54635,1.90,3.30
54635,1.90,3.30
54635,1.90,3.30
54636,1.90,3.30
54636,1.90,3.30
54636,1.90,3.30
54637,1.90,3.30
54637,1.89,3.30
54637,1.89,3.30
54637,1.90,3.30
54638,1.89,3.30
54638,1.90,3.30
54638,1.90,3.30
54639,1.90,3.30
54639,1.90,3.30
54639,1.89,3.30
54640,1.90,3.30
54640,1.89,3.30
54640,1.90,3.30
54640,1.90,3.30
54641,1.90,3.30
54641,1.90,3.30
54641,1.89,3.30
54642,1.89,3.30
54642,1.90,3.30
54642,1.90,3.30
54643,1.89,3.30
54643,1.90,3.30
54643,1.89,3.30
54643,1.90,3.30
54644,1.90,3.30
54644,1.89,3.30
54644,1.89,3.30
54645,1.89,3.30
54645,1.89,3.30
54645,1.90,3.30
54646,1.90,3.30
54646,1.89,3.30
54646,1.89,3.30
54646,1.90,3.30
54647,1.89,3.30
54647,1.89,3.30
54647,1.89,3.30
54648,1.90,3.30
54648,1.90,3.30
54648,1.90,3.30
54649,1.89,3.30
54649,1.90,3.30
54649,1.89,3.30
54649,1.89,3.30
54650,1.89,3.30
54650,1.90,3.30
54650,1.89,3.30
54651,1.89,3.30
54651,1.90,3.30
54651,1.89,3.30
54652,1.89,3.30
54652,1.90,3.30
54652,1.90,3.30
54653,1.90,3.30
54653,1.89,3.30
54653,1.90,3.30
54653,1.89,3.30
54654,1.89,3.30
54654,1.89,3.30
54654,1.90,3.30
54655,1.90,3.30
54655,1.89,3.30
54655,1.89,3.30
54656,1.90,3.30
54656,1.88,3.30
54656,1.89,3.30
54656,1.89,3.30
54657,1.89,3.30
54657,1.89,3.30
54657,1.90,3.30
                                  56369,1.89,3.30
56370,1.89,3.30
56370,1.89,3.30
56370,1.89,3.30
56371,1.89,3.30
56371,1.89,3.30
56371,1.89,3.30
56372,1.90,3.30
56372,1.90,3.30
56372,1.90,3.30
56372,1.89,3.30
56373,1.89,3.30
56373,1.90,3.30
56373,1.89,3.30
56374,1.89,3.30
56374,1.89,3.30
56374,1.89,3.30
56375,1.90,3.30
56375,1.87,3.30
56375,1.89,3.30
56375,1.89,3.30
56376,1.89,3.30
56376,1.89,3.30
56376,1.89,3.30
56377,1.89,3.30
56377,1.89,3.30
56377,1.89,3.30
56378,1.89,3.30
56378,1.90,3.30
56378,1.89,3.30
56378,1.89,3.30
56379,1.89,3.30
56379,1.90,3.30
56379,1.89,3.30
56380,1.89,3.30
56380,1.89,3.30
56380,1.89,3.30
56381,1.89,3.30
56381,1.89,3.30
56381,1.89,3.30
56381,1.89,3.30
56382,1.89,3.30
56382,1.89,3.30
56382,1.89,3.30
56383,1.89,3.30
56383,1.89,3.30
56383,1.89,3.30
56384,1.89,3.30
56384,1.89,3.30
56384,1.89,3.30
56384,1.89,3.30
56385,1.88,3.30
56385,1.89,3.30
56385,1.89,3.30
56386,1.89,3.30
56386,1.89,3.30
56386,1.89,3.30
56387,1.89,3.30
56387,1.89,3.30
56387,1.89,3.30
56388,1.88,3.30
56388,1.89,3.30
56388,1.89,3.30
56388,1.89,3.30
56389,1.88,3.30
56389,1.88,3.30
56389,1.89,3.30
56390,1.89,3.30
56390,1.89,3.30
56390,1.89,3.30
56391,1.88,3.30
56391,1.89,3.30
56391,1.88,3.30
56391,1.89,3.30
56392,1.89,3.30
56392,1.89,3.30
56392,1.89,3.30
56393,1.88,3.30
56393,1.89,3.30
56393,1.89,3.30
56394,1.88,3.30
56394,1.88,3.30
56394,1.89,3.30
56394,1.89,3.30
56395,1.89,3.30
56395,1.89,3.30
56395,1.89,3.30
56396,1.89,3.30
56396,1.89,3.30
56396,1.89,3.30
56397,1.88,3.30
56397,1.88,3.30
56397,1.88,3.30
56397,1.88,3.30
56398,1.89,3.30
56398,1.89,3.30
56398,1.88,3.30
56399,1.88,3.30
56399,1.89,3.30
56399,1.89,3.30
56400,1.87,3.30
56400,1.90,3.30
56400,1.89,3.30
56400,1.89,3.30
56401,1.88,3.30
56401,1.89,3.30
56401,1.88,3.30
56402,1.89,3.30
56402,1.88,3.30
56402,1.88,3.30
56403,1.89,3.30
56403,1.88,3.30
56403,1.88,3.30
56404,1.88,3.30
56404,1.89,3.30
56404,1.89,3.30
56404,1.88,3.30
56405,1.88,3.30
56405,1.88,3.30
56405,1.88,3.30
56406,1.88,3.30
56406,1.88,3.30
56406,1.89,3.30
56407,1.88,3.30
56407,1.88,3.30
56407,1.89,3.30
56407,1.88,3.30
56408,1.88,3.30
56408,1.89,3.30
56408,1.88,3.30
56409,1.89,3.30
56409,1.88,3.30
56409,1.88,3.30
56410,1.88,3.30
56410,1.88,3.30
56410,1.88,3.30
56410,1.90,3.30
56411,1.88,3.30
56411,1.88,3.30
56411,1.89,3.30
56412,1.88,3.30
56412,1.88,3.30
56412,1.88,3.30
56413,1.89,3.30
56413,1.88,3.30
56413,1.88,3.30
56413,1.88,3.30
56414,1.88,3.30
56414,1.88,3.30
56414,1.89,3.30
56415,1.88,3.30
56415,1.88,3.30
56415,1.89,3.30
56416,1.88,3.30
56416,1.88,3.30
56416,1.88,3.30
56416,1.89,3.30
56417,1.88,3.30
56417,1.88,3.30
56417,1.88,3.30
56418,1.88,3.30
56418,1.88,3.30
56418,1.88,3.30
56419,1.88,3.30
56419,1.88,3.30
56419,1.88,3.30
56420,1.88,3.30
56420,1.88,3.30
56420,1.88,3.30
56420,1.88,3.30
56421,1.88,3.30
56421,1.88,3.30
56421,1.88,3.30
56422,1.88,3.30
56422,1.88,3.30
56422,1.88,3.30
56423,1.88,3.30
56423,1.88,3.30
56423,1.88,3.30
56423,1.88,3.30
56424,1.88,3.30
56424,1.88,3.30
56424,1.88,3.30
56425,1.88,3.30
56425,1.88,3.30
56425,1.88,3.30
56426,1.88,3.30
56426,1.88,3.30
56426,1.88,3.30
56426,1.88,3.30
56427,1.88,3.30
56427,1.88,3.30
56427,1.88,3.30
56428,1.87,3.30
56428,1.88,3.30
56428,1.88,3.30
56429,1.88,3.30
56429,1.87,3.30
56429,1.88,3.30
56429,1.88,3.30
56430,1.87,3.30
56430,1.88,3.30
56430,1.87,3.30
56431,1.88,3.30
56431,1.88,3.30
56431,1.88,3.30
56432,1.87,3.30
56432,1.88,3.30
56432,1.87,3.30
56432,1.88,3.30
56433,1.87,3.30
56433,1.87,3.30
56433,1.88,3.30
56434,1.87,3.30
56434,1.87,3.30
56434,1.88,3.30
56435,1.87,3.30
56435,1.87,3.30
56435,1.87,3.30
56436,1.87,3.30
56436,1.87,3.30
56436,1.87,3.30
56436,1.87,3.30
56437,1.87,3.30
56437,1.87,3.30
56437,1.87,3.30
56438,1.87,3.30
56438,1.87,3.30
56438,1.87,3.30
56439,1.87,3.29
56439,1.87,3.29
56439,1.87,3.28
56439,1.87,3.27
56440,1.87,3.27
56440,1.87,3.27
56440,1.87,3.26
56441,1.87,3.26
56441,1.86,3.25
56441,1.86,3.24
56442,1.86,3.24
56442,1.86,3.24
56442,1.85,3.23
56442,1.86,3.22
56443,1.86,3.22
56443,1.86,3.21
56443,1.86,3.20
56444,1.86,3.20
56444,1.86,3.19
56444,1.85,3.19
56445,1.86,3.18
56445,1.85,3.18
56445,1.85,3.17
56445,1.86,3.16
56446,1.85,3.16
56446,1.85,3.15
56446,1.84,3.14
56447,1.85,3.14
56447,1.85,3.13
56447,1.85,3.13
56448,1.84,3.13
56448,1.85,3.12
56448,1.84,3.11
56448,1.84,3.12
56449,1.84,3.10
56449,1.84,3.10
56449,1.84,3.10
56450,1.83,3.08
56450,1.84,3.08
56450,1.84,3.08
56451,1.84,3.08
56451,1.84,3.07
56451,1.83,3.06
56452,1.84,3.06
56452,1.83,3.05
56452,1.84,3.05
56452,1.84,3.04
56453,1.83,3.04
56453,1.82,3.03
56453,1.83,3.03
56454,1.83,3.02
56454,1.83,3.02
56454,1.83,3.02
56455,1.82,3.01
56455,1.82,3.00
56455,1.82,3.00
56455,1.82,3.00
56456,1.82,2.99
56456,1.82,2.99
56456,1.82,2.98
56457,1.82,2.98
56457,1.81,2.98
56457,1.82,2.97
56458,1.82,2.96
56458,1.81,2.96
56458,1.82,2.95
56458,1.82,2.95
56459,1.81,2.95
56459,1.81,2.95
56459,1.81,2.94
56460,1.81,2.94
56460,1.81,2.93
56460,1.81,2.93
56461,1.81,2.93
56461,1.80,2.93
56461,1.81,2.92
56461,1.80,2.92
56462,1.81,2.91
56462,1.80,2.92
56462,1.80,2.91
56463,1.81,2.91
56463,1.80,2.90
56463,1.79,2.89
56464,1.79,2.89
56464,1.80,2.89
56464,1.79,2.89
56465,1.79,2.88
56465,1.79,2.88
56465,1.79,2.88
56465,1.79,2.88
56466,1.80,2.87
56466,1.79,2.87
56466,1.79,2.87
56467,1.79,2.86
56467,1.79,2.86
56467,1.79,2.86
56468,1.79,2.85
56468,1.79,2.85
56468,1.78,2.85
56468,1.78,2.85
56469,1.78,2.85
56469,1.79,2.84
56469,1.79,2.84
56470,1.78,2.84
56470,1.78,2.83
56470,1.78,2.84
56471,1.78,2.83
56471,1.78,2.83
56471,1.79,2.83
56471,1.78,2.83
56472,1.77,2.82
56472,1.78,2.82
56472,1.77,2.82
56473,1.78,2.82
56473,1.78,2.82
56473,1.78,2.81
56474,1.78,2.81
56474,1.78,2.82
56474,1.78,2.81
56474,1.78,2.81
56475,1.78,2.81
56475,1.77,2.80
56475,1.78,2.81
56476,1.78,2.80
56476,1.77,2.80
56476,1.78,2.80
56477,1.78,2.80
56477,1.77,2.80
56477,1.78,2.80
56477,1.78,2.80
56478,1.78,2.80
56478,1.77,2.80
56478,1.77,2.80
56479,1.78,2.79
56479,1.78,2.79
56479,1.78,2.79
56480,1.78,2.79
56480,1.77,2.79
56480,1.77,2.79
56481,1.77,2.79
56481,1.77,2.78
56481,1.77,2.79
56481,1.77,2.78
56482,1.78,2.78
56482,1.77,2.78
56482,1.77,2.79
56483,1.77,2.78
56483,1.77,2.78
56483,1.77,2.78
56484,1.77,2.78
56484,1.78,2.78
56484,1.78,2.78
56484,1.78,2.78
56485,1.78,2.79
56485,1.77,2.78
56485,1.78,2.78
56486,1.78,2.78
56486,1.78,2.78
56486,1.78,2.78
56487,1.78,2.77
56487,1.78,2.78
56487,1.78,2.78
56487,1.78,2.78
56488,1.78,2.77
56488,1.78,2.78
56488,1.78,2.78
56489,1.78,2.78
56489,1.77,2.78
56489,1.78,2.78
56490,1.78,2.78
56490,1.78,2.78
56490,1.78,2.78
56490,1.78,2.79
56491,1.78,2.78
56491,1.78,2.78
56491,1.79,2.79
56492,1.79,2.79
56492,1.79,2.79
56492,1.78,2.79
56493,1.79,2.78
56493,1.79,2.78
56493,1.79,2.79
56494,1.79,2.79
56494,1.79,2.79
56494,1.79,2.79
56494,1.79,2.80
56495,1.79,2.80
56495,1.79,2.80
56495,1.79,2.80
56496,1.80,2.80
56496,1.79,2.80
56496,1.79,2.81
56497,1.80,2.81
56497,1.79,2.81
56497,1.79,2.81
56497,1.80,2.82
56498,1.80,2.82
56498,1.80,2.82
56498,1.80,2.82
56499,1.80,2.82
56499,1.79,2.83
56499,1.80,2.82
56500,1.80,2.83
56500,1.80,2.84
56500,1.80,2.84
56500,1.80,2.85
56501,1.81,2.85
56501,1.81,2.85
56501,1.81,2.86
56502,1.81,2.86
56502,1.81,2.86
56502,1.81,2.87
56503,1.81,2.88
56503,1.82,2.88
56503,1.81,2.89
56503,1.81,2.89
56504,1.81,2.90
56504,1.81,2.91
56504,1.82,2.91
56505,1.82,2.91
56505,1.82,2.92
56505,1.82,2.93
56506,1.82,2.93
56506,1.82,2.94
56506,1.83,2.94
56506,1.82,2.95
56507,1.83,2.95
56507,1.81,2.95
56507,1.83,2.96
56508,1.83,2.97
56508,1.83,2.97
56508,1.83,2.98
56509,1.83,2.98
56509,1.83,2.99
56509,1.84,2.98
56510,1.84,2.99
56510,1.84,3.00
56510,1.84,3.00
56510,1.84,3.00
56511,1.84,3.00
56511,1.85,3.01
56511,1.84,3.01
56512,1.85,3.01
56512,1.85,3.01
56512,1.85,3.02
56513,1.84,3.03
56513,1.87,3.03
56513,1.85,3.03
56513,1.86,3.03
56514,1.85,3.03
56514,1.85,3.03
56514,1.85,3.04
56515,1.86,3.04
56515,1.86,3.04
56515,1.85,3.04
56516,1.85,3.04
56516,1.86,3.04
56516,1.86,3.05
56516,1.87,3.05
56517,1.86,3.05
56517,1.86,3.06
56517,1.86,3.05
56518,1.86,3.06
56518,1.86,3.06
56518,1.86,3.06
56519,1.86,3.06
56519,1.86,3.07
56519,1.87,3.07
56519,1.86,3.07
56520,1.87,3.07
56520,1.87,3.07
56520,1.87,3.08
56521,1.87,3.08
56521,1.87,3.08
56521,1.88,3.08
56522,1.87,3.09
56522,1.87,3.09
56522,1.87,3.09
56522,1.87,3.09
56523,1.87,3.10
56523,1.88,3.09
56523,1.87,3.10
56524,1.87,3.10
56524,1.87,3.10
56524,1.87,3.11
56525,1.88,3.11
56525,1.87,3.11
56525,1.88,3.11
56526,1.87,3.11
56526,1.88,3.11
56526,1.87,3.12
56526,1.88,3.12
56527,1.88,3.12
56527,1.88,3.12
56527,1.88,3.12
56528,1.88,3.13
56528,1.88,3.13
56528,1.88,3.13
56529,1.88,3.13
56529,1.88,3.14
56529,1.87,3.14
56529,1.88,3.14
56530,1.89,3.14
56530,1.88,3.14
56530,1.88,3.14
56531,1.88,3.15
56531,1.88,3.14
56531,1.89,3.15
56532,1.89,3.15
56532,1.89,3.15
56532,1.89,3.15
56532,1.89,3.16
56533,1.89,3.16
56533,1.89,3.16
56533,1.89,3.16
56534,1.89,3.16
56534,1.89,3.17
56534,1.89,3.17
56535,1.89,3.18
56535,1.89,3.17
56535,1.90,3.18
56535,1.89,3.17
56536,1.90,3.17
56536,1.90,3.18
56536,1.89,3.19
56537,1.90,3.18
56537,1.90,3.19
56537,1.90,3.18
56538,1.90,3.19
56538,1.90,3.19
56538,1.89,3.19
56538,1.90,3.20
56539,1.91,3.20
56539,1.90,3.20
56539,1.89,3.20
56540,1.90,3.20
56540,1.90,3.21
56540,1.90,3.21
56541,1.90,3.20
56541,1.90,3.21
56541,1.91,3.22
56542,1.90,3.21
56542,1.90,3.22
56542,1.90,3.22
56542,1.90,3.22
56543,1.90,3.21
56543,1.90,3.22
56543,1.90,3.23
56544,1.90,3.23
56544,1.90,3.22
56544,1.90,3.22
56545,1.90,3.24
56545,1.91,3.23
56545,1.90,3.23
56545,1.90,3.23
56546,1.90,3.24
56546,1.90,3.23
56546,1.90,3.24
56547,1.90,3.25
56547,1.91,3.24
56547,1.91,3.24
56548,1.90,3.25
56548,1.90,3.25
56548,1.90,3.24
56548,1.91,3.25
56549,1.91,3.26
56549,1.90,3.25
56549,1.90,3.25
56550,1.91,3.25
56550,1.90,3.26
56550,1.91,3.26
56551,1.90,3.27
56551,1.90,3.26
56551,1.91,3.26
56551,1.91,3.27
56552,1.90,3.27
56552,1.90,3.27
56552,1.91,3.27
56553,1.90,3.26
56553,1.91,3.28
56553,1.91,3.27
56554,1.91,3.27
56554,1.89,3.28
56554,1.88,3.28
56554,1.90,3.28
56555,1.91,3.28
56555,1.90,3.28
56555,1.90,3.28
56556,1.91,3.28
56556,1.90,3.29
56556,1.90,3.29
56557,1.90,3.28
56557,1.90,3.29
56557,1.91,3.29
56558,1.91,3.29
56558,1.90,3.30
56558,1.90,3.30
56558,1.90,3.29
56559,1.91,3.30
56559,1.90,3.30
56559,1.91,3.30
56560,1.91,3.30
56560,1.91,3.30
56560,1.91,3.30
56561,1.91,3.30
56561,1.91,3.30
56561,1.91,3.30
56561,1.90,3.30
56562,1.91,3.30
56562,1.90,3.30
56562,1.91,3.30
56563,1.91,3.30
56563,1.90,3.30
56563,1.91,3.30
56564,1.91,3.30
56564,1.91,3.30
56564,1.91,3.30
56564,1.91,3.30
56565,1.91,3.30
56565,1.91,3.30
56565,1.91,3.30
56566,1.90,3.30
56566,1.91,3.30
56566,1.91,3.30
56567,1.91,3.30
56567,1.91,3.30
56567,1.93,3.30
56567,1.91,3.30
56568,1.90,3.30
56568,1.90,3.30
56568,1.90,3.30
56569,1.91,3.30
56569,1.91,3.30
56569,1.91,3.30
56570,1.91,3.30
56570,1.91,3.30
56570,1.90,3.30
56570,1.90,3.30
56571,1.91,3.30
56571,1.93,3.30
56571,1.91,3.30
56572,1.91,3.30
56572,1.90,3.30
56572,1.91,3.30
56573,1.91,3.30
56573,1.91,3.30
56573,1.91,3.30
56574,1.90,3.30
56574,1.91,3.30
56574,1.91,3.30
56574,1.91,3.30
56575,1.90,3.30
56575,1.90,3.30
56575,1.90,3.30
56576,1.91,3.30
56576,1.91,3.30
56576,1.91,3.30
56577,1.90,3.30
56577,1.90,3.30
56577,1.90,3.30
56577,1.91,3.30
56578,1.90,3.30
56578,1.90,3.30
56578,1.90,3.30
56579,1.90,3.30
56579,1.90,3.30
56579,1.91,3.30
56580,1.90,3.30
56580,1.88,3.30
56580,1.90,3.30
56580,1.91,3.30
56581,1.91,3.30
56581,1.91,3.30
56581,1.90,3.30
56582,1.90,3.30
56582,1.91,3.30
56582,1.91,3.30
56583,1.90,3.30
56583,1.90,3.30
56583,1.90,3.30
56583,1.90,3.30
56584,1.90,3.30
56584,1.90,3.30
56584,1.90,3.30
56585,1.90,3.30
56585,1.90,3.30
56585,1.90,3.30
56586,1.90,3.30
56586,1.90,3.30
56586,1.90,3.30
56586,1.90,3.30
56587,1.90,3.30
56587,1.90,3.30
56587,1.90,3.30
56588,1.90,3.30
56588,1.90,3.30
56588,1.90,3.30
56589,1.90,3.30
56589,1.90,3.30
56589,1.90,3.30
56590,1.90,3.30
56590,1.89,3.30
56590,1.90,3.30
56590,1.91,3.30
56591,1.90,3.30
56591,1.90,3.30
56591,1.90,3.30
56592,1.90,3.30
56592,1.90,3.30
56592,1.90,3.30
56593,1.90,3.30
56593,1.90,3.30
56593,1.90,3.30
56593,1.90,3.30
56594,1.90,3.30
56594,1.92,3.30
56594,1.90,3.30
56595,1.90,3.30
56595,1.90,3.30
56595,1.90,3.30
56596,1.90,3.30
56596,1.90,3.30
56596,1.91,3.30
56596,1.90,3.30
56597,1.90,3.30
56597,1.90,3.30
56597,1.90,3.30
56598,1.90,3.30
56598,1.90,3.30
56598,1.90,3.30
56599,1.90,3.30
56599,1.90,3.30
56599,1.90,3.30
56599,1.90,3.30
56600,1.90,3.30
56600,1.90,3.30
56600,1.90,3.30
56601,1.90,3.30
56601,1.90,3.30
56601,1.90,3.30
56602,1.90,3.30
56602,1.89,3.30
56602,1.90,3.30
56602,1.90,3.30
56603,1.90,3.30
56603,1.90,3.30
56603,1.90,3.30
56604,1.90,3.30
56604,1.89,3.30
56604,1.90,3.30
56605,1.89,3.30
56605,1.89,3.30
56605,1.90,3.30
56606,1.90,3.30
56606,1.89,3.30
56606,1.90,3.30
56606,1.90,3.30
56607,1.90,3.30
56607,1.90,3.30
56607,1.89,3.30
56608,1.89,3.30
56608,1.90,3.30
56608,1.89,3.30
56609,1.90,3.30
56609,1.89,3.30
56609,1.90,3.30
56609,1.89,3.30
56610,1.89,3.30
56610,1.87,3.30
56610,1.89,3.30
56611,1.90,3.30
56611,1.89,3.30
56611,1.90,3.30
56612,1.89,3.30
56612,1.89,3.30
56612,1.90,3.30
56612,1.89,3.30
56613,1.89,3.30
56613,1.90,3.30
56613,1.89,3.30
56614,1.89,3.30
56614,1.90,3.30
56614,1.89,3.30
56615,1.90,3.30
56615,1.89,3.30
56615,1.89,3.30
56615,1.90,3.30
56616,1.90,3.30
56616,1.90,3.30
56616,1.90,3.30
56617,1.90,3.30
56617,1.90,3.30
56617,1.89,3.30
56618,1.89,3.30
56618,1.90,3.30
56618,1.89,3.30
56618,1.91,3.30
56619,1.89,3.30
56619,1.89,3.30
56619,1.89,3.30
56620,1.90,3.30
56620,1.90,3.30
56620,1.90,3.30
56621,1.89,3.30
56621,1.89,3.30
56621,1.90,3.30
56621,1.89,3.30
56622,1.90,3.30
56622,1.89,3.30
56622,1.89,3.30
56623,1.89,3.30
56623,1.89,3.30
56623,1.89,3.30
56624,1.89,3.30
56624,1.89,3.30
56624,1.89,3.30
56625,1.89,3.30
56625,1.89,3.30
56625,1.89,3.30
56625,1.89,3.30
56626,1.87,3.30
56626,1.91,3.30
56626,1.90,3.30
56627,1.88,3.30
56627,1.89,3.30
56627,1.89,3.30
56628,1.90,3.30
56628,1.89,3.30
56628,1.89,3.30
56628,1.89,3.30
56629,1.89,3.30
56629,1.89,3.30
56629,1.89,3.30
56630,1.90,3.30
56630,1.89,3.30
56630,1.89,3.30
56631,1.89,3.30
56631,1.90,3.30
56631,1.89,3.30
56631,1.89,3.30
56632,1.89,3.30
56632,1.88,3.30
56632,1.89,3.30
56633,1.89,3.30
56633,1.89,3.30
56633,1.89,3.30
56634,1.89,3.30
56634,1.89,3.30
56634,1.89,3.30
56634,1.89,3.30
56635,1.89,3.30
56635,1.89,3.30
56635,1.89,3.30
56636,1.89,3.30
56636,1.89,3.30
56636,1.89,3.30
56637,1.89,3.30
56637,1.89,3.30
56637,1.89,3.30
56637,1.89,3.30
56638,1.89,3.30
56638,1.89,3.30
56638,1.89,3.30
56639,1.89,3.30
56639,1.89,3.30
56639,1.88,3.30
56640,1.89,3.30
56640,1.90,3.30
56640,1.88,3.30
56641,1.89,3.30
56641,1.88,3.30
56641,1.89,3.30
56641,1.88,3.30
56642,1.89,3.30
56642,1.89,3.30
56642,1.89,3.30
56643,1.89,3.30
56643,1.88,3.30
56643,1.89,3.30
56644,1.88,3.30
56644,1.89,3.30
56644,1.89,3.30
56644,1.88,3.30
56645,1.88,3.30
56645,1.88,3.30
56645,1.89,3.30
56646,1.88,3.30
56646,1.89,3.30
56646,1.89,3.30
56647,1.89,3.30
56647,1.89,3.30
56647,1.88,3.30
56647,1.88,3.30
56648,1.88,3.30
56648,1.89,3.30
56648,1.89,3.30
56649,1.89,3.30
56649,1.88,3.30
56649,1.88,3.30
56650,1.89,3.30
56650,1.89,3.30
56650,1.89,3.30
56650,1.89,3.30
56651,1.89,3.30
56651,1.89,3.30
56651,1.89,3.30
56652,1.89,3.30
56652,1.88,3.30
56652,1.89,3.30
56653,1.89,3.30
56653,1.88,3.30
56653,1.89,3.30
56653,1.89,3.30
56654,1.89,3.30
56654,1.89,3.30
56654,1.88,3.30
56655,1.88,3.30
56655,1.88,3.30
56655,1.88,3.30
56656,1.89,3.30
56656,1.88,3.30
56656,1.88,3.30
56657,1.89,3.30
56657,1.88,3.30
56657,1.89,3.30
56657,1.88,3.30
56658,1.88,3.30
56658,1.89,3.30
56658,1.88,3.30
56659,1.89,3.30
56659,1.89,3.30
56659,1.89,3.30
56660,1.88,3.30
56660,1.89,3.30
56660,1.88,3.30
56660,1.88,3.30
56661,1.89,3.30
56661,1.88,3.30
56661,1.88,3.30
56662,1.89,3.30
56662,1.89,3.30
56662,1.88,3.30
56663,1.88,3.30
56663,1.88,3.30
56663,1.88,3.30
56663,1.88,3.30
56664,1.89,3.30
56664,1.88,3.30
56664,1.88,3.30
56665,1.88,3.30
56665,1.88,3.30
56665,1.88,3.30
56666,1.87,3.30
56666,1.88,3.30
56666,1.88,3.30
56666,1.88,3.30
56667,1.88,3.30
56667,1.88,3.30
56667,1.88,3.30
56668,1.88,3.30
56668,1.88,3.30
56668,1.88,3.30
56669,1.88,3.30
56669,1.88,3.30
56669,1.88,3.30
56669,1.88,3.30
56670,1.88,3.30
56670,1.88,3.30
56670,1.88,3.30
56671,1.88,3.30
56671,1.88,3.30
56671,1.88,3.30
56672,1.88,3.30
56672,1.88,3.30
56672,1.88,3.30
56673,1.88,3.30
56673,1.88,3.30
56673,1.88,3.30
56673,1.88,3.30
56674,1.88,3.30
56674,1.88,3.30
56674,1.87,3.30
56675,1.88,3.30
56675,1.87,3.30
56675,1.87,3.30
56676,1.88,3.30
56676,1.87,3.30
56676,1.87,3.30
56676,1.88,3.30
56677,1.88,3.30
56677,1.88,3.30
56677,1.88,3.30
56678,1.87,3.30
56678,1.88,3.30
56678,1.87,3.30
56679,1.88,3.30
56679,1.87,3.30
56679,1.88,3.30
56679,1.87,3.30
56680,1.87,3.30
56680,1.87,3.30
56680,1.88,3.30
56681,1.87,3.30
56681,1.85,3.30
56681,1.87,3.30
56682,1.87,3.30
56682,1.88,3.30
56682,1.87,3.30
56682,1.87,3.30
56683,1.87,3.30
56683,1.87,3.30
56683,1.87,3.30
56684,1.87,3.30
56684,1.87,3.30
56684,1.87,3.29
56685,1.87,3.29
56685,1.87,3.29
56685,1.87,3.27
56685,1.87,3.28
56686,1.86,3.27
56686,1.86,3.26
56686,1.88,3.26
56687,1.87,3.25
56687,1.86,3.25
56687,1.86,3.24
56688,1.86,3.23
56688,1.87,3.23
56688,1.86,3.22
56689,1.86,3.21
56689,1.86,3.21
56689,1.88,3.21
56689,1.86,3.19
56690,1.86,3.19
56690,1.86,3.19
56690,1.85,3.18
56691,1.87,3.17
56691,1.85,3.16
56691,1.85,3.16
56692,1.85,3.15
56692,1.85,3.15
56692,1.85,3.15
56692,1.85,3.14
56693,1.85,3.14
56693,1.85,3.13
56693,1.84,3.13
56694,1.84,3.12
56694,1.84,3.11
56694,1.84,3.11
56695,1.84,3.11
56695,1.84,3.10
56695,1.84,3.09
56695,1.84,3.09
56696,1.84,3.08
56696,1.84,3.08
56696,1.84,3.07
56697,1.83,3.07
56697,1.83,3.07
56697,1.84,3.05
56698,1.83,3.06
56698,1.86,3.05
56698,1.83,3.04
56698,1.83,3.05
56699,1.83,3.04
56699,1.83,3.03
56699,1.83,3.03
56700,1.83,3.02
56700,1.82,3.02
56700,1.82,3.01
56701,1.82,3.01
56701,1.82,3.00
56701,1.82,3.00
56702,1.82,3.00
56702,1.82,2.99
56702,1.82,2.99
56702,1.82,2.98
56703,1.82,2.98
56703,1.82,2.98
56703,1.81,2.97
56704,1.82,2.96
56704,1.82,2.96
56704,1.81,2.96
56705,1.81,2.95
56705,1.81,2.95
56705,1.81,2.95
56705,1.81,2.94
56706,1.81,2.94
56706,1.81,2.94
56706,1.81,2.93
56707,1.80,2.93
56707,1.80,2.93
56707,1.80,2.92
56708,1.81,2.91
56708,1.80,2.91
56708,1.80,2.91
56708,1.80,2.91
56709,1.80,2.90
56709,1.80,2.90
56709,1.80,2.90
56710,1.79,2.89
56710,1.80,2.89
56710,1.79,2.88
56711,1.80,2.88
56711,1.80,2.88
56711,1.79,2.88
56711,1.79,2.88
56712,1.79,2.88
56712,1.79,2.87
56712,1.79,2.86
56713,1.79,2.86
56713,1.79,2.86
56713,1.79,2.86
56714,1.79,2.86
56714,1.79,2.85
56714,1.79,2.85
56714,1.79,2.85
56715,1.78,2.85
56715,1.78,2.84
56715,1.79,2.84
56716,1.78,2.84
56716,1.78,2.83
56716,1.78,2.84
56717,1.78,2.83
56717,1.79,2.83
56717,1.78,2.82
56718,1.78,2.82
56718,1.78,2.82
56718,1.78,2.82
56718,1.78,2.82
56719,1.78,2.82
56719,1.78,2.82
56719,1.78,2.82
56720,1.78,2.82
56720,1.78,2.82
56720,1.78,2.81
56721,1.78,2.81
56721,1.78,2.81
56721,1.78,2.81
56721,1.78,2.81
56722,1.78,2.80
56722,1.79,2.80
56722,1.78,2.80
56723,1.78,2.80
56723,1.78,2.80
56723,1.77,2.80
56724,1.78,2.80
56724,1.78,2.80
56724,1.78,2.79
56724,1.78,2.79
56725,1.78,2.79
56725,1.77,2.79
56725,1.78,2.79
56726,1.78,2.79
56726,1.78,2.79
56726,1.77,2.79
56727,1.78,2.78
56727,1.77,2.79
56727,1.78,2.78
56727,1.78,2.78
56728,1.78,2.78
56728,1.78,2.78
56728,1.77,2.78
56729,1.78,2.79
56729,1.77,2.79
56729,1.78,2.78
56730,1.77,2.78
56730,1.78,2.78
56730,1.77,2.78
56730,1.78,2.78
56731,1.77,2.78
56731,1.78,2.78
56731,1.78,2.78
56732,1.78,2.78
56732,1.78,2.78
56732,1.78,2.78
56733,1.78,2.78
56733,1.78,2.78
56733,1.78,2.78
56734,1.78,2.78
56734,1.78,2.78
56734,1.79,2.78
56734,1.78,2.78
56735,1.78,2.78
56735,1.78,2.78
56735,1.78,2.78
56736,1.78,2.78
56736,1.78,2.78
56736,1.78,2.78
56737,1.79,2.78
56737,1.79,2.78
56737,1.79,2.79
56737,1.78,2.78
56738,1.79,2.79
56738,1.79,2.79
56738,1.79,2.79
56739,1.79,2.79
56739,1.79,2.79
56739,1.79,2.79
56740,1.79,2.79
56740,1.79,2.80
56740,1.79,2.80
56740,1.79,2.80
56741,1.79,2.80
56741,1.79,2.80
56741,1.79,2.80
56742,1.79,2.80
56742,1.80,2.80
56742,1.79,2.81
56743,1.80,2.81
56743,1.80,2.82
56743,1.79,2.82
56743,1.79,2.82
56744,1.80,2.82
56744,1.80,2.82
56744,1.80,2.82
56745,1.80,2.82
56745,1.80,2.83
56745,1.81,2.83
56746,1.80,2.83
56746,1.81,2.84
56746,1.80,2.84
56747,1.80,2.85
56747,1.81,2.85
56747,1.82,2.86
56747,1.81,2.86
56748,1.82,2.86
56748,1.82,2.87
56748,1.81,2.88
56749,1.82,2.88
56749,1.80,2.89
56749,1.82,2.89
56750,1.82,2.90
56750,1.82,2.91
56750,1.82,2.91
56750,1.82,2.92
56751,1.83,2.93
56751,1.82,2.93
56751,1.83,2.94
56752,1.83,2.94
56752,1.82,2.95
56752,1.83,2.95
56753,1.83,2.96
56753,1.83,2.96
56753,1.83,2.96
56753,1.83,2.97
56754,1.83,2.97
56754,1.83,2.98
56754,1.84,2.98
56755,1.84,2.99
56755,1.85,2.99
56755,1.84,2.99
56756,1.83,3.00
56756,1.84,3.00
56756,1.83,3.00
56756,1.84,3.01
56757,1.84,3.01
56757,1.84,3.01
56757,1.85,3.02
56758,1.85,3.02
56758,1.85,3.02
56758,1.85,3.03
56759,1.86,3.03
56759,1.85,3.03
56759,1.85,3.04
56759,1.85,3.04
56760,1.86,3.04
56760,1.85,3.04
56760,1.86,3.04
56761,1.86,3.04
56761,1.86,3.05
56761,1.86,3.05
56762,1.86,3.05
56762,1.86,3.05
56762,1.86,3.05
56763,1.86,3.06
56763,1.86,3.05
56763,1.86,3.06
56763,1.86,3.06
56764,1.86,3.06
56764,1.87,3.06
56764,1.87,3.07
56765,1.86,3.06
56765,1.88,3.06
56765,1.86,3.07
56766,1.86,3.08
56766,1.86,3.07
56766,1.87,3.08
56766,1.87,3.08
56767,1.87,3.07
56767,1.87,3.08
56767,1.87,3.09
56768,1.87,3.08
56768,1.88,3.08
56768,1.87,3.09
56769,1.87,3.09
56769,1.87,3.09
56769,1.87,3.10
56769,1.87,3.10
56770,1.88,3.10
56770,1.87,3.10
56770,1.87,3.10
56771,1.88,3.10
56771,1.87,3.11
56771,1.87,3.11
56772,1.88,3.11
56772,1.88,3.12
56772,1.88,3.12
56772,1.88,3.12
56773,1.88,3.12
56773,1.88,3.12
56773,1.88,3.13
56774,1.88,3.12
56774,1.88,3.13
56774,1.88,3.13
56775,1.89,3.14
56775,1.88,3.14
56775,1.88,3.14
56775,1.87,3.14
56776,1.88,3.14
56776,1.89,3.15
56776,1.89,3.14
56777,1.88,3.15
56777,1.89,3.15
56777,1.89,3.15
56778,1.89,3.16
56778,1.88,3.16
56778,1.89,3.16
56779,1.88,3.16
56779,1.89,3.17
56779,1.89,3.16
56779,1.89,3.17
56780,1.89,3.17
56780,1.89,3.16
56780,1.89,3.17
56781,1.90,3.17
56781,1.89,3.18
56781,1.89,3.18
56782,1.89,3.18
56782,1.89,3.18
56782,1.88,3.18
56782,1.90,3.18
56783,1.90,3.19
56783,1.90,3.19
56783,1.90,3.19
56784,1.90,3.19
56784,1.89,3.20
56784,1.90,3.19
56785,1.90,3.20
56785,1.90,3.20
56785,1.89,3.20
56785,1.89,3.20
56786,1.90,3.20
56786,1.90,3.21
56786,1.90,3.21
56787,1.90,3.21
56787,1.90,3.21
56787,1.90,3.21
56788,1.90,3.21
56788,1.90,3.21
56788,1.90,3.21
56788,1.90,3.21
56789,1.90,3.22
56789,1.90,3.22
56789,1.89,3.22
56790,1.90,3.23
56790,1.90,3.23
56790,1.91,3.24
56791,1.90,3.23
56791,1.90,3.24
56791,1.90,3.23
56791,1.91,3.24
56792,1.90,3.25
56792,1.90,3.24
56792,1.91,3.24
56793,1.90,3.24
56793,1.91,3.24
56793,1.90,3.25
56794,1.91,3.25
56794,1.90,3.25
56794,1.90,3.25
56795,1.91,3.25
56795,1.90,3.26
56795,1.90,3.24
56795,1.90,3.25
56796,1.90,3.26
56796,1.91,3.26
56796,1.91,3.26
56797,1.90,3.26
56797,1.91,3.26
56797,1.91,3.26
56798,1.90,3.26
56798,1.91,3.27
56798,1.90,3.27
56798,1.90,3.27
56799,1.90,3.27
56799,1.90,3.27
56799,1.91,3.27
56800,1.91,3.27
56800,1.90,3.28
56800,1.90,3.28
56801,1.91,3.28
56801,1.90,3.29
56801,1.91,3.28
56801,1.90,3.29
56802,1.91,3.28
56802,1.91,3.29
56802,1.91,3.29
56803,1.90,3.28
56803,1.91,3.29
56803,1.91,3.29
56804,1.90,3.29
56804,1.90,3.29
56804,1.90,3.29
56804,1.90,3.30
56805,1.90,3.30
56805,1.91,3.29
56805,1.90,3.30
56806,1.91,3.30
56806,1.91,3.30
56806,1.91,3.30
56807,1.91,3.30
56807,1.90,3.30
56807,1.90,3.30
56807,1.91,3.30
56808,1.91,3.30
56808,1.90,3.30
56808,1.91,3.30
56809,1.91,3.30
56809,1.91,3.30
56809,1.91,3.30
56810,1.91,3.30
56810,1.91,3.30
56810,1.91,3.30
56811,1.91,3.30
56811,1.91,3.30
56811,1.90,3.30
56811,1.91,3.30
56812,1.91,3.30
56812,1.90,3.30
56812,1.90,3.30
56813,1.90,3.30
56813,1.91,3.30
56813,1.91,3.30
56814,1.90,3.30
56814,1.91,3.30
56814,1.90,3.30
56814,1.91,3.30
56815,1.91,3.30
56815,1.91,3.30
56815,1.91,3.30
56816,1.90,3.30
56816,1.91,3.30
56816,1.90,3.30
56817,1.90,3.30
56817,1.90,3.30
56817,1.91,3.30
56817,1.90,3.30
56818,1.91,3.30
56818,1.91,3.30
56818,1.90,3.30
56819,1.91,3.30
56819,1.90,3.30
56819,1.89,3.30
56820,1.91,3.30
56820,1.90,3.30
56820,1.90,3.30
56820,1.90,3.30
56821,1.91,3.30
56821,1.91,3.30
56821,1.91,3.30
56822,1.90,3.30
56822,1.91,3.30
56822,1.90,3.30
56823,1.90,3.30
56823,1.91,3.30
56823,1.91,3.30
56823,1.91,3.30
56824,1.90,3.30
56824,1.91,3.30
56824,1.90,3.30
56825,1.90,3.30
56825,1.91,3.30
56825,1.90,3.30
56826,1.90,3.30
56826,1.90,3.30
56826,1.90,3.30
56827,1.90,3.30
56827,1.90,3.30
56827,1.91,3.30
56827,1.91,3.30
56828,1.91,3.30
56828,1.90,3.30
56828,1.90,3.30
56829,1.90,3.30
56829,1.91,3.30
56829,1.90,3.30
56830,1.90,3.30
56830,1.91,3.30
56830,1.90,3.30
56830,1.90,3.30
56831,1.90,3.30
56831,1.90,3.30
56831,1.90,3.30
56832,1.89,3.30
56832,1.90,3.30
56832,1.90,3.30
56833,1.90,3.30
56833,1.90,3.30
56833,1.90,3.30
56833,1.90,3.30
56834,1.90,3.30
56834,1.91,3.30
56834,1.91,3.30
56835,1.90,3.30
56835,1.90,3.30
56835,1.90,3.30
56836,1.90,3.30
56836,1.90,3.30
56836,1.90,3.30
56836,1.90,3.30
56837,1.90,3.30
56837,1.90,3.30
56837,1.90,3.30
56838,1.90,3.30
56838,1.90,3.30
56838,1.90,3.30
56839,1.90,3.30
56839,1.90,3.30
56839,1.90,3.30
56839,1.90,3.30
56840,1.90,3.30
56840,1.90,3.30
56840,1.90,3.30
56841,1.90,3.30
56841,1.90,3.30
56841,1.90,3.30
56842,1.90,3.30
56842,1.90,3.30
56842,1.90,3.30
56843,1.90,3.30
56843,1.90,3.30
56843,1.90,3.30
56843,1.90,3.30
56844,1.90,3.30
56844,1.90,3.30
56844,1.90,3.30
56845,1.90,3.30
56845,1.90,3.30
56845,1.90,3.30
56846,1.90,3.30
56846,1.90,3.30
56846,1.90,3.30
56846,1.90,3.30
56847,1.90,3.30
56847,1.89,3.30
56847,1.90,3.30
56848,1.91,3.30
56848,1.90,3.30
56848,1.90,3.30
56849,1.90,3.30
56849,1.90,3.30
56849,1.90,3.30
56849,1.88,3.30
56850,1.89,3.30
56850,1.90,3.30
56850,1.90,3.30
56851,1.89,3.30
56851,1.89,3.30
56851,1.90,3.30
56852,1.90,3.30
56852,1.90,3.30
56852,1.89,3.30
56852,1.90,3.30
56853,1.90,3.30
56853,1.90,3.30
56853,1.90,3.30
56854,1.89,3.30
56854,1.89,3.30
56854,1.90,3.30
56855,1.90,3.30
56855,1.90,3.30
56855,1.90,3.30
56855,1.89,3.30
56856,1.89,3.30
56856,1.90,3.30
56856,1.89,3.30
56857,1.89,3.30
56857,1.89,3.30
56857,1.90,3.30
56858,1.90,3.30
56858,1.89,3.30
56858,1.89,3.30
56859,1.89,3.30
56859,1.89,3.30
56859,1.89,3.30
56859,1.89,3.30
56860,1.89,3.30
56860,1.90,3.30
56860,1.89,3.30
56861,1.88,3.30
56861,1.89,3.30
56861,1.89,3.30
56862,1.89,3.30
56862,1.89,3.30
56862,1.89,3.30
56862,1.90,3.30
56863,1.89,3.30
56863,1.89,3.30
56863,1.90,3.30
56864,1.89,3.30
56864,1.89,3.30
56864,1.89,3.30
56865,1.89,3.30
56865,1.89,3.30
56865,1.89,3.30
56865,1.89,3.30
56866,1.89,3.30
56866,1.89,3.30
56866,1.89,3.30
56867,1.89,3.30
56867,1.90,3.30
56867,1.89,3.30
56868,1.89,3.30
56868,1.89,3.30
56868,1.89,3.30
56868,1.89,3.30
56869,1.89,3.30
56869,1.89,3.30
56869,1.90,3.30
56870,1.89,3.30
56870,1.89,3.30
56870,1.89,3.30
56871,1.88,3.30
56871,1.89,3.30
56871,1.89,3.30
56871,1.89,3.30
56872,1.89,3.30
56872,1.89,3.30
56872,1.89,3.30
56873,1.89,3.30
56873,1.89,3.30
56873,1.89,3.30
56874,1.91,3.30
56874,1.89,3.30
56874,1.89,3.30
56875,1.88,3.30
56875,1.89,3.30
56875,1.88,3.30
56875,1.89,3.30
56876,1.89,3.30
56876,1.89,3.30
56876,1.89,3.30
56877,1.89,3.30
56877,1.87,3.30
56877,1.90,3.30
56878,1.88,3.30
56878,1.89,3.30
56878,1.90,3.30
56878,1.89,3.30
56879,1.88,3.30
56879,1.90,3.30
56879,1.89,3.30
56880,1.89,3.30
56880,1.89,3.30
56880,1.89,3.30
56881,1.89,3.30
56881,1.89,3.30
56881,1.89,3.30
56881,1.89,3.30
56882,1.88,3.30
56882,1.89,3.30
56882,1.89,3.30
56883,1.89,3.30
56883,1.89,3.30
56883,1.89,3.30
56884,1.89,3.30
56884,1.89,3.30
56884,1.88,3.30
56884,1.89,3.30
56885,1.87,3.30
56885,1.89,3.30
56885,1.90,3.30
56886,1.88,3.30
56886,1.88,3.30
56886,1.89,3.30
56887,1.89,3.30
56887,1.89,3.30
56887,1.89,3.30
56887,1.89,3.30
56888,1.89,3.30
56888,1.89,3.30
56888,1.88,3.30
56889,1.89,3.30
56889,1.89,3.30
56889,1.89,3.30
56890,1.88,3.30
56890,1.89,3.30
56890,1.89,3.30
56891,1.89,3.30
56891,1.88,3.30
56891,1.88,3.30
56891,1.89,3.30
56892,1.89,3.30
56892,1.88,3.30
56892,1.89,3.30
56893,1.88,3.30
56893,1.89,3.30
56893,1.88,3.30
56894,1.88,3.30
56894,1.89,3.30
56894,1.89,3.30
56894,1.88,3.30
56895,1.88,3.30
56895,1.88,3.30
56895,1.88,3.30
56896,1.88,3.30
56896,1.88,3.30
56896,1.88,3.30
56897,1.88,3.30
56897,1.88,3.30
56897,1.89,3.30
56897,1.88,3.30
56898,1.88,3.30
56898,1.88,3.30
56898,1.88,3.30
56899,1.89,3.30
56899,1.88,3.30
56899,1.88,3.30
56900,1.88,3.30
56900,1.88,3.30
56900,1.89,3.30
56900,1.89,3.30
56901,1.88,3.30
56901,1.88,3.30
56901,1.88,3.30
56902,1.88,3.30
56902,1.89,3.30
56902,1.88,3.30
56903,1.88,3.30
56903,1.88,3.30
56903,1.88,3.30
56903,1.88,3.30
56904,1.88,3.30
56904,1.89,3.30
56904,1.89,3.30
56905,1.88,3.30
56905,1.88,3.30
56905,1.88,3.30
56906,1.88,3.30
56906,1.88,3.30
56906,1.88,3.30
56907,1.88,3.30
56907,1.88,3.30
56907,1.88,3.30
56907,1.89,3.30
56908,1.88,3.30
56908,1.88,3.30
56908,1.88,3.30
56909,1.88,3.30
56909,1.88,3.30
56909,1.90,3.30
56910,1.88,3.30
56910,1.88,3.30
56910,1.89,3.30
56910,1.88,3.30
56911,1.88,3.30
56911,1.88,3.30
56911,1.88,3.30
56912,1.88,3.30
56912,1.88,3.30
56912,1.88,3.30
56913,1.88,3.30
56913,1.89,3.30
56913,1.88,3.30
56913,1.88,3.30
56914,1.88,3.30
56914,1.90,3.30
56914,1.88,3.30
56915,1.88,3.30
56915,1.88,3.30
56915,1.88,3.30
56916,1.88,3.30
56916,1.87,3.30
56916,1.88,3.30
56916,1.88,3.30
56917,1.88,3.30
56917,1.87,3.30
56917,1.88,3.30
56918,1.88,3.30
56918,1.88,3.30
56918,1.88,3.30
56919,1.88,3.30
56919,1.88,3.30
56919,1.88,3.30
56919,1.87,3.30
56920,1.88,3.30
56920,1.88,3.30
56920,1.88,3.30
56921,1.88,3.30
56921,1.88,3.30
56921,1.88,3.30
56922,1.88,3.30
56922,1.87,3.30
56922,1.87,3.30
56923,1.87,3.30
56923,1.88,3.30
56923,1.87,3.30
56923,1.87,3.30
56924,1.87,3.30
56924,1.87,3.30
56924,1.87,3.30
56925,1.87,3.30
56925,1.87,3.30
56925,1.87,3.30
56926,1.87,3.30
56926,1.87,3.30
56926,1.85,3.30
56926,1.87,3.30
56927,1.87,3.30
56927,1.87,3.30
56927,1.87,3.30
56928,1.87,3.30
56928,1.87,3.30
56928,1.87,3.30
56929,1.87,3.30
56929,1.87,3.30
56929,1.87,3.29
56929,1.87,3.28
56930,1.87,3.27
56930,1.87,3.27
56930,1.87,3.26
56931,1.87,3.26
56931,1.86,3.26
56931,1.86,3.25
56932,1.87,3.24
56932,1.86,3.24
56932,1.86,3.23
56932,1.86,3.23
56933,1.86,3.22
56933,1.86,3.21
56933,1.86,3.21
56934,1.86,3.21
56934,1.85,3.19
56934,1.84,3.19
56935,1.85,3.19
56935,1.86,3.18
56935,1.85,3.18
56935,1.85,3.17
56936,1.85,3.17
56936,1.85,3.16
56936,1.85,3.16
56937,1.85,3.14
56937,1.85,3.14
56937,1.85,3.14
56938,1.87,3.13
56938,1.84,3.13
56938,1.84,3.12
56939,1.84,3.11
56939,1.84,3.12
56939,1.84,3.11
56939,1.84,3.10
56940,1.84,3.09
56940,1.84,3.09
56940,1.84,3.08
56941,1.84,3.07
56941,1.83,3.07
56941,1.84,3.07
56942,1.83,3.07
56942,1.83,3.06
56942,1.83,3.06
56942,1.83,3.05
56943,1.83,3.04
56943,1.83,3.04
56943,1.83,3.03
56944,1.83,3.03
56944,1.83,3.03
56944,1.83,3.02
56945,1.82,3.02
56945,1.83,3.01
56945,1.82,3.01
56945,1.82,3.00
56946,1.82,3.00
56946,1.82,2.99
56946,1.82,2.99
56947,1.82,2.98
56947,1.82,2.98
56947,1.82,2.98
56948,1.82,2.97
56948,1.81,2.97
56948,1.81,2.97
56948,1.82,2.97
56949,1.82,2.96
56949,1.81,2.95
56949,1.81,2.95
56950,1.80,2.94
56950,1.81,2.95
56950,1.81,2.94
56951,1.81,2.93
56951,1.81,2.93
56951,1.80,2.93
56951,1.81,2.93
56952,1.80,2.93
56952,1.80,2.92
56952,1.80,2.91
56953,1.80,2.91
56953,1.80,2.91
56953,1.80,2.90
56954,1.80,2.90
56954,1.80,2.90
56954,1.80,2.89
56955,1.80,2.89
56955,1.79,2.89
56955,1.80,2.88
56955,1.79,2.88
56956,1.79,2.87
56956,1.79,2.87
56956,1.79,2.87
56957,1.79,2.87
56957,1.79,2.86
56957,1.79,2.86
56958,1.79,2.86
56958,1.79,2.86
56958,1.79,2.85
56958,1.79,2.85
56959,1.80,2.85
56959,1.79,2.85
56959,1.79,2.84
56960,1.79,2.85
56960,1.78,2.84
56960,1.78,2.84
56961,1.78,2.84
56961,1.78,2.83
56961,1.78,2.83
56961,1.78,2.83
56962,1.78,2.83
56962,1.78,2.82
56962,1.78,2.82
56963,1.78,2.82
56963,1.78,2.82
56963,1.79,2.82
56964,1.78,2.82
56964,1.78,2.82
56964,1.78,2.81
56964,1.78,2.81
56965,1.78,2.81
56965,1.77,2.81
56965,1.78,2.81
56966,1.78,2.81
56966,1.77,2.81
56966,1.78,2.80
56967,1.78,2.80
56967,1.78,2.80
56967,1.78,2.80
56967,1.78,2.80
56968,1.78,2.80
56968,1.78,2.80
56968,1.78,2.80
56969,1.78,2.80
56969,1.77,2.79
56969,1.78,2.80
56970,1.77,2.79
56970,1.78,2.79
56970,1.77,2.79
56971,1.77,2.79
56971,1.77,2.79
56971,1.78,2.78
56971,1.78,2.79
56972,1.77,2.79
56972,1.78,2.78
56972,1.77,2.78
56973,1.78,2.79
56973,1.77,2.78
56973,1.77,2.78
56974,1.78,2.78
56974,1.78,2.78
56974,1.77,2.78
56974,1.77,2.78
56975,1.78,2.78
56975,1.77,2.78
56975,1.78,2.78
56976,1.78,2.78
56976,1.78,2.78
56976,1.78,2.78
56977,1.77,2.78
56977,1.78,2.78
56977,1.77,2.78
56977,1.78,2.78
56978,1.78,2.78
56978,1.78,2.78
56978,1.78,2.78
56979,1.78,2.78
56979,1.78,2.78
56979,1.78,2.78
56980,1.78,2.79
56980,1.78,2.79
56980,1.79,2.78
56980,1.79,2.78
56981,1.78,2.79
56981,1.78,2.79
56981,1.78,2.79
56982,1.79,2.79
56982,1.79,2.79
56982,1.78,2.79
56983,1.79,2.79
56983,1.79,2.79
56983,1.79,2.79
56983,1.79,2.79
56984,1.79,2.80
56984,1.78,2.80
56984,1.79,2.80
56985,1.79,2.80
56985,1.79,2.80
56985,1.79,2.80
56986,1.80,2.80
56986,1.80,2.80
56986,1.79,2.81
56987,1.79,2.81
56987,1.79,2.81
56987,1.80,2.81
56987,1.80,2.81
56988,1.80,2.82
56988,1.81,2.82
56988,1.80,2.82
56989,1.80,2.82
56989,1.80,2.82
56989,1.80,2.83
56990,1.81,2.84
56990,1.80,2.84
56990,1.80,2.84
56990,1.82,2.84
56991,1.81,2.85
56991,1.81,2.85
56991,1.81,2.85
56992,1.81,2.85
56992,1.81,2.85
56992,1.81,2.87
56993,1.81,2.88
56993,1.81,2.88
56993,1.82,2.88
56993,1.81,2.89
56994,1.82,2.89
56994,1.82,2.89
56994,1.82,2.91
56995,1.82,2.91
56995,1.82,2.92
56995,1.82,2.92
56996,1.82,2.93
56996,1.83,2.93
56996,1.82,2.94
56996,1.83,2.94
56997,1.83,2.95
56997,1.83,2.95
56997,1.83,2.95
56998,1.83,2.96
56998,1.83,2.97
56998,1.83,2.97
56999,1.83,2.98
56999,1.83,2.98
56999,1.84,2.98
57000,1.84,2.99
57000,1.84,3.00
57000,1.84,3.00
57000,1.84,3.00
57001,1.84,3.00
57001,1.84,3.01
57001,1.84,3.01
57002,1.84,3.01
57002,1.85,3.01
57002,1.85,3.03
57003,1.85,3.03
57003,1.85,3.03
57003,1.85,3.03
57003,1.85,3.03
57004,1.86,3.03
57004,1.85,3.04
57004,1.85,3.04
57005,1.85,3.04
57005,1.86,3.04
57005,1.86,3.04
57006,1.86,3.05
57006,1.86,3.05
57006,1.86,3.05
57006,1.86,3.06
57007,1.86,3.06
57007,1.86,3.06
57007,1.86,3.06
57008,1.86,3.07
57008,1.86,3.06
57008,1.86,3.07
57009,1.86,3.07
57009,1.86,3.08
57009,1.87,3.08
57009,1.86,3.07
57010,1.86,3.08
57010,1.87,3.08
57010,1.87,3.08
57011,1.87,3.08
57011,1.87,3.08
57011,1.87,3.08
57012,1.87,3.09
57012,1.87,3.09
57012,1.87,3.09
57012,1.87,3.09
57013,1.87,3.09
57013,1.88,3.09
57013,1.88,3.09
57014,1.87,3.09
57014,1.87,3.09
57014,1.88,3.10
57015,1.87,3.10
57015,1.87,3.10
57015,1.87,3.11
57016,1.88,3.11
57016,1.88,3.11
57016,1.88,3.11
57016,1.88,3.12
57017,1.88,3.11
57017,1.88,3.12
57017,1.88,3.13
57018,1.88,3.12
57018,1.87,3.13
57018,1.88,3.13
57019,1.88,3.13
57019,1.88,3.13
57019,1.88,3.14
57019,1.89,3.14
57020,1.89,3.14
57020,1.88,3.14
57020,1.89,3.14
57021,1.88,3.15
57021,1.89,3.15
57021,1.88,3.16
57022,1.89,3.15
57022,1.89,3.16
57022,1.89,3.16
57022,1.88,3.15
57023,1.89,3.16
57023,1.89,3.17
57023,1.89,3.16
57024,1.89,3.17
57024,1.89,3.17
57024,1.89,3.17
57025,1.89,3.18
57025,1.89,3.18
57025,1.89,3.18
57025,1.89,3.18
57026,1.90,3.18
57026,1.90,3.18
57026,1.89,3.18
57027,1.90,3.19
57027,1.89,3.19
57027,1.89,3.19
57028,1.90,3.19
57028,1.89,3.19
57028,1.88,3.20
57028,1.90,3.20
57029,1.90,3.19
57029,1.90,3.20
57029,1.90,3.20
57030,1.90,3.20
57030,1.89,3.20
57030,1.90,3.21
57031,1.89,3.20
57031,1.90,3.21
57031,1.90,3.21
57032,1.90,3.21
57032,1.90,3.21
57032,1.90,3.21
57032,1.90,3.21
57033,1.90,3.21
57033,1.90,3.21
57033,1.90,3.22
57034,1.90,3.22
57034,1.90,3.23
57034,1.90,3.23
57035,1.90,3.23
57035,1.90,3.23
57035,1.90,3.23
57035,1.90,3.23
57036,1.90,3.23
57036,1.90,3.24
57036,1.90,3.22
57037,1.90,3.24
57037,1.90,3.24
57037,1.90,3.24
57038,1.90,3.25
57038,1.90,3.24
57038,1.90,3.25
57038,1.90,3.25
57039,1.90,3.25
57039,1.90,3.25
57039,1.91,3.25
57040,1.90,3.26
57040,1.90,3.25
57040,1.90,3.26
57041,1.90,3.26
57041,1.90,3.26
57041,1.90,3.26
57041,1.90,3.26
57042,1.90,3.27
57042,1.91,3.27
57042,1.90,3.26
57043,1.90,3.27
57043,1.90,3.27
57043,1.91,3.28
57044,1.90,3.28
57044,1.90,3.27
57044,1.91,3.27
57044,1.91,3.28
57045,1.90,3.28
57045,1.91,3.28
57045,1.91,3.28
57046,1.90,3.29
57046,1.90,3.29
57046,1.90,3.28
57047,1.91,3.29
57047,1.90,3.29
57047,1.91,3.28
57048,1.90,3.29
57048,1.91,3.29
57048,1.90,3.30
57048,1.91,3.29
57049,1.90,3.29
57049,1.91,3.30
57049,1.90,3.30
57050,1.90,3.30
57050,1.90,3.30
57050,1.91,3.30
57051,1.92,3.30
57051,1.91,3.30
57051,1.91,3.30
57051,1.90,3.30
57052,1.91,3.30
57052,1.91,3.30
57052,1.91,3.30
57053,1.91,3.30
57053,1.90,3.30
57053,1.90,3.30
57054,1.91,3.30
57054,1.91,3.30
57054,1.91,3.30
57054,1.91,3.30
57055,1.90,3.30
57055,1.90,3.30
57055,1.91,3.30
57056,1.91,3.30
57056,1.90,3.30
57056,1.91,3.30
57057,1.91,3.30
57057,1.91,3.30
57057,1.91,3.30
57057,1.91,3.30
57058,1.91,3.30
57058,1.91,3.30
57058,1.90,3.30
57059,1.90,3.30
57059,1.90,3.30
57059,1.90,3.30
57060,1.90,3.30
57060,1.90,3.30
57060,1.90,3.30
57060,1.91,3.30
57061,1.91,3.30
57061,1.91,3.30
57061,1.91,3.30
57062,1.91,3.30
57062,1.90,3.30
57062,1.91,3.30
57063,1.90,3.30
57063,1.90,3.30
57063,1.91,3.30
57064,1.91,3.30
57064,1.90,3.30
57064,1.90,3.30
57064,1.91,3.30
57065,1.91,3.30
57065,1.90,3.30
57065,1.90,3.30
57066,1.91,3.30
57066,1.91,3.30
57066,1.90,3.30
57067,1.90,3.30
57067,1.90,3.30
57067,1.90,3.30
57067,1.90,3.30
57068,1.90,3.30
57068,1.90,3.30
57068,1.91,3.30
57069,1.90,3.30
57069,1.91,3.30
57069,1.90,3.30
57070,1.91,3.30
57070,1.90,3.30
57070,1.90,3.30
57070,1.90,3.30
57071,1.90,3.30
57071,1.90,3.30
57071,1.90,3.30
57072,1.90,3.30
57072,1.90,3.30
57072,1.90,3.30
57073,1.91,3.30
57073,1.90,3.30
57073,1.90,3.30
57073,1.91,3.30
57074,1.90,3.30
57074,1.91,3.30
57074,1.90,3.30
57075,1.90,3.30
57075,1.90,3.30
57075,1.91,3.30
57076,1.90,3.30
57076,1.91,3.30
57076,1.91,3.30
57076,1.91,3.30
57077,1.90,3.30
57077,1.90,3.30
57077,1.90,3.30
57078,1.90,3.30
57078,1.90,3.30
57078,1.90,3.30
57079,1.91,3.30
57079,1.90,3.30
57079,1.90,3.30
57080,1.90,3.30
57080,1.91,3.30
57080,1.90,3.30
57080,1.90,3.30
57081,1.90,3.30
57081,1.90,3.30
57081,1.90,3.30
57082,1.90,3.30
57082,1.90,3.30
57082,1.90,3.30
57083,1.90,3.30
57083,1.90,3.30
57083,1.91,3.30
57083,1.91,3.30
57084,1.90,3.30
57084,1.89,3.30
57084,1.90,3.30
57085,1.90,3.30
57085,1.91,3.30
57085,1.90,3.30
57086,1.90,3.30
57086,1.90,3.30
57086,1.90,3.30
57086,1.90,3.30
57087,1.90,3.30
57087,1.90,3.30
57087,1.90,3.30
57088,1.90,3.30
57088,1.89,3.30
57088,1.90,3.30
57089,1.90,3.30
57089,1.90,3.30
57089,1.90,3.30
57089,1.90,3.30
57090,1.90,3.30
57090,1.88,3.30
57090,1.90,3.30
57091,1.89,3.30
57091,1.90,3.30
57091,1.90,3.30
57092,1.90,3.30
57092,1.90,3.30
57092,1.90,3.30
57092,1.90,3.30
57093,1.90,3.30
57093,1.90,3.30
57093,1.90,3.30
57094,1.89,3.30
57094,1.90,3.30
57094,1.89,3.30
57095,1.90,3.30
57095,1.90,3.30
57095,1.90,3.30
57096,1.89,3.30
57096,1.90,3.30
57096,1.89,3.30
57096,1.89,3.30
57097,1.90,3.30
57097,1.90,3.30
57097,1.89,3.30
57098,1.90,3.30
57098,1.89,3.30
57098,1.90,3.30
57099,1.89,3.30
57099,1.90,3.30
57099,1.90,3.30
57099,1.90,3.30
57100,1.89,3.30
57100,1.89,3.30
57100,1.90,3.30
57101,1.90,3.30
57101,1.90,3.30
57101,1.89,3.30
57102,1.90,3.30
57102,1.90,3.30
57102,1.89,3.30
57102,1.90,3.30
57103,1.90,3.30
57103,1.89,3.30
57103,1.89,3.30
57104,1.89,3.30
57104,1.89,3.30
57104,1.89,3.30
57105,1.90,3.30
57105,1.89,3.30
57105,1.89,3.30
57105,1.89,3.30
57106,1.90,3.30
57106,1.89,3.30
57106,1.89,3.30
57107,1.89,3.30
57107,1.89,3.30
57107,1.90,3.30
57108,1.89,3.30
57108,1.89,3.30
57108,1.90,3.30
57108,1.89,3.30
57109,1.91,3.30
57109,1.89,3.30
57109,1.89,3.30
57110,1.89,3.30
57110,1.89,3.30
57110,1.89,3.30
57111,1.89,3.30
57111,1.89,3.30
57111,1.89,3.30
57112,1.89,3.30
57112,1.89,3.30
57112,1.89,3.30
57112,1.90,3.30
57113,1.88,3.30
57113,1.89,3.30
57113,1.89,3.30
57114,1.91,3.30
57114,1.89,3.30
57114,1.89,3.30
57115,1.89,3.30
57115,1.89,3.30
57115,1.89,3.30
57115,1.89,3.30
57116,1.89,3.30
57116,1.89,3.30
57116,1.90,3.30
57117,1.89,3.30
57117,1.89,3.30
57117,1.89,3.30
57118,1.89,3.30
57118,1.89,3.30
57118,1.89,3.30
57118,1.88,3.30
57119,1.89,3.30
57119,1.89,3.30
57119,1.89,3.30
57120,1.89,3.30
57120,1.89,3.30
57120,1.88,3.30
57121,1.88,3.30
57121,1.88,3.30
57121,1.90,3.30
57121,1.89,3.30
57122,1.89,3.30
57122,1.89,3.30
57122,1.89,3.30
57123,1.89,3.30
57123,1.87,3.30
57123,1.89,3.30
57124,1.89,3.30
57124,1.89,3.30
57124,1.89,3.30
57124,1.89,3.30
57125,1.89,3.30
57125,1.88,3.30
57125,1.89,3.30
57126,1.88,3.30
57126,1.89,3.30
57126,1.89,3.30
57127,1.90,3.30
57127,1.89,3.30
57127,1.89,3.30
57128,1.89,3.30
57128,1.89,3.30
57128,1.89,3.30
57128,1.88,3.30
57129,1.88,3.30
57129,1.89,3.30
57129,1.89,3.30
57130,1.89,3.30
57130,1.89,3.30
57130,1.89,3.30
57131,1.89,3.30
57131,1.89,3.30
57131,1.89,3.30
57131,1.88,3.30
57132,1.89,3.30
57132,1.89,3.30
57132,1.89,3.30
57133,1.89,3.30
57133,1.88,3.30
57133,1.88,3.30
57134,1.89,3.30
57134,1.88,3.30
57134,1.89,3.30
57134,1.89,3.30
57135,1.89,3.30
57135,1.88,3.30
57135,1.88,3.30
57136,1.88,3.30
57136,1.88,3.30
57136,1.88,3.30
57137,1.88,3.30
57137,1.88,3.30
57137,1.88,3.30
57137,1.89,3.30
57138,1.89,3.30
57138,1.88,3.30
57138,1.89,3.30
57139,1.89,3.30
57139,1.88,3.30
57139,1.88,3.30
57140,1.89,3.30
57140,1.88,3.30
57140,1.89,3.30
57140,1.89,3.30
57141,1.89,3.30
57141,1.88,3.30
57141,1.89,3.30
57142,1.88,3.30
57142,1.88,3.30
57142,1.89,3.30
57143,1.88,3.30
57143,1.88,3.30
57143,1.88,3.30
57144,1.88,3.30
57144,1.88,3.30
57144,1.88,3.30
57144,1.89,3.30
57145,1.88,3.30
57145,1.88,3.30
57145,1.88,3.30
57146,1.88,3.30
57146,1.89,3.30
57146,1.88,3.30
57147,1.88,3.30
57147,1.88,3.30
57147,1.88,3.30
57147,1.87,3.30
57148,1.88,3.30
57148,1.88,3.30
57148,1.88,3.30
57149,1.88,3.30
57149,1.88,3.30
57149,1.88,3.30
57150,1.88,3.30
57150,1.88,3.30
57150,1.88,3.30
57150,1.88,3.30
57151,1.88,3.30
57151,1.88,3.30
57151,1.88,3.30
57152,1.88,3.30
57152,1.88,3.30
57152,1.88,3.30
57153,1.88,3.30
57153,1.89,3.30
57153,1.88,3.30
57153,1.88,3.30
57154,1.88,3.30
57154,1.88,3.30
57154,1.88,3.30
57155,1.88,3.30
57155,1.88,3.30
57155,1.88,3.30
57156,1.88,3.30
57156,1.88,3.30
57156,1.88,3.30
57156,1.88,3.30
57157,1.87,3.30
57157,1.88,3.30
57157,1.88,3.30
57158,1.88,3.30
57158,1.88,3.30
57158,1.88,3.30
57159,1.88,3.30
57159,1.88,3.30
57159,1.88,3.30
57160,1.88,3.30
57160,1.88,3.30
57160,1.89,3.30
57160,1.88,3.30
57161,1.88,3.30
57161,1.88,3.30
57161,1.88,3.30
57162,1.88,3.30
57162,1.88,3.30
57162,1.88,3.30
57163,1.88,3.30
57163,1.88,3.30
57163,1.88,3.30
57163,1.86,3.30
57164,1.88,3.30
57164,1.88,3.30
57164,1.88,3.30
57165,1.88,3.30
57165,1.88,3.30
57165,1.88,3.30
57166,1.87,3.30
57166,1.87,3.30
57166,1.88,3.30
57166,1.88,3.30
57167,1.88,3.30
57167,1.87,3.30
57167,1.87,3.30
57168,1.88,3.30
57168,1.87,3.30
57168,1.88,3.30
57169,1.87,3.30
57169,1.87,3.30
57169,1.88,3.30
57169,1.87,3.30
57170,1.87,3.30
57170,1.87,3.30
57170,1.87,3.30
57171,1.87,3.30
57171,1.87,3.30
57171,1.87,3.30
57172,1.87,3.30
57172,1.87,3.30
57172,1.87,3.30
57172,1.88,3.30
57173,1.87,3.30
57173,1.87,3.30
57173,1.87,3.30
57174,1.87,3.30
57174,1.87,3.30
57174,1.87,3.29
57175,1.87,3.29
57175,1.87,3.28
57175,1.89,3.28
57176,1.87,3.27
57176,1.87,3.26
57176,1.87,3.26
57176,1.86,3.25
57177,1.86,3.25
57177,1.87,3.25
57177,1.86,3.24
57178,1.86,3.23
57178,1.87,3.22
57178,1.86,3.22
57179,1.87,3.22
57179,1.86,3.21
57179,1.86,3.21
57179,1.86,3.21
57180,1.86,3.19
57180,1.85,3.19
57180,1.85,3.18
57181,1.85,3.18
57181,1.85,3.17
57181,1.87,3.16
57182,1.86,3.16
57182,1.85,3.15
57182,1.85,3.15
57182,1.85,3.14
57183,1.84,3.14
57183,1.85,3.13
57183,1.84,3.13
57184,1.84,3.12
57184,1.84,3.12
57184,1.85,3.11
57185,1.84,3.11
57185,1.84,3.10
57185,1.84,3.09
57185,1.84,3.09
57186,1.84,3.08
57186,1.83,3.08
57186,1.84,3.07
57187,1.83,3.07
57187,1.84,3.07
57187,1.83,3.06
57188,1.84,3.05
57188,1.83,3.05
57188,1.83,3.05
57188,1.83,3.04
57189,1.83,3.03
57189,1.82,3.03
57189,1.83,3.02
57190,1.83,3.02
57190,1.83,3.02
57190,1.83,3.01
57191,1.83,3.00
57191,1.82,3.00
57191,1.82,3.00
57192,1.82,2.99
57192,1.82,2.99
57192,1.82,2.98
57192,1.82,2.98
57193,1.82,2.98
57193,1.81,2.98
57193,1.82,2.97
57194,1.81,2.96
57194,1.82,2.96
57194,1.82,2.95
57195,1.82,2.95
57195,1.81,2.95
57195,1.81,2.95
57195,1.81,2.94
57196,1.81,2.94
57196,1.81,2.93
57196,1.81,2.93
57197,1.80,2.93
57197,1.80,2.92
57197,1.80,2.93
57198,1.80,2.92
57198,1.80,2.92
57198,1.80,2.91
57198,1.80,2.91
57199,1.80,2.90
57199,1.80,2.90
57199,1.80,2.90
57200,1.80,2.89
57200,1.79,2.89
57200,1.79,2.89
57201,1.80,2.88
57201,1.79,2.88
57201,1.80,2.88
57201,1.80,2.87
57202,1.79,2.88
57202,1.79,2.87
57202,1.79,2.87
57203,1.78,2.86
57203,1.79,2.86
57203,1.79,2.86
57204,1.79,2.86
57204,1.78,2.85
57204,1.78,2.85
57204,1.78,2.85
57205,1.79,2.85
57205,1.79,2.85
57205,1.78,2.84
57206,1.78,2.84
57206,1.79,2.84
57206,1.78,2.84
57207,1.78,2.83
57207,1.77,2.83
57207,1.78,2.83
57208,1.78,2.83
57208,1.78,2.83
57208,1.78,2.82
57208,1.78,2.82
57209,1.78,2.82
57209,1.78,2.81
57209,1.78,2.82
57210,1.79,2.81
57210,1.78,2.81
57210,1.77,2.81
57211,1.78,2.81
57211,1.78,2.81
57211,1.77,2.81
57211,1.78,2.80
57212,1.77,2.80
57212,1.77,2.80
57212,1.78,2.80
57213,1.78,2.80
57213,1.77,2.80
57213,1.77,2.80
57214,1.78,2.80
57214,1.78,2.79
57214,1.78,2.80
57214,1.77,2.79
57215,1.77,2.79
57215,1.79,2.79
57215,1.78,2.80
57216,1.77,2.79
57216,1.77,2.79
57216,1.78,2.79
57217,1.77,2.79
57217,1.78,2.79
57217,1.78,2.79
57217,1.77,2.79
57218,1.78,2.79
57218,1.78,2.79
57218,1.78,2.79
57219,1.77,2.78
57219,1.77,2.78
57219,1.78,2.78
57220,1.78,2.78
57220,1.78,2.78
57220,1.78,2.78
57221,1.77,2.78
57221,1.77,2.78
57221,1.78,2.78
57221,1.78,2.78
57222,1.78,2.78
57222,1.78,2.78
57222,1.77,2.78
57223,1.78,2.78
57223,1.78,2.78
57223,1.78,2.78
57224,1.78,2.78
57224,1.78,2.78
57224,1.78,2.78
57224,1.78,2.78
57225,1.78,2.78
57225,1.78,2.78
57225,1.78,2.78
57226,1.79,2.78
57226,1.79,2.79
57226,1.78,2.79
57227,1.78,2.78
57227,1.78,2.78
57227,1.79,2.78
57227,1.79,2.78
57228,1.78,2.79
57228,1.79,2.79
57228,1.79,2.79
57229,1.79,2.79
57229,1.79,2.79
57229,1.79,2.79
57230,1.79,2.79
57230,1.79,2.80
57230,1.79,2.80
57230,1.79,2.80
57231,1.79,2.80
57231,1.79,2.80
57231,1.79,2.80
57232,1.80,2.80
57232,1.79,2.81
57232,1.80,2.81
57233,1.80,2.81
57233,1.80,2.81
57233,1.80,2.81
57233,1.80,2.82
57234,1.80,2.82
57234,1.80,2.82
57234,1.80,2.82
57235,1.80,2.83
57235,1.81,2.83
57235,1.80,2.83
57236,1.80,2.84
57236,1.81,2.85
57236,1.81,2.84
57237,1.81,2.85
57237,1.81,2.85
57237,1.81,2.86
57237,1.81,2.86
57238,1.81,2.87
57238,1.81,2.87
57238,1.81,2.88
57239,1.81,2.88
57239,1.82,2.89
57239,1.82,2.89
57240,1.82,2.90
57240,1.82,2.91
57240,1.82,2.91
57240,1.82,2.92
57241,1.82,2.93
57241,1.83,2.93
57241,1.82,2.93
57242,1.82,2.94
57242,1.83,2.94
57242,1.84,2.95
57243,1.83,2.95
57243,1.83,2.96
57243,1.83,2.96
57243,1.83,2.96
57244,1.84,2.98
57244,1.83,2.98
57244,1.84,2.98
57245,1.83,2.99
57245,1.84,2.98
57245,1.83,2.99
57246,1.84,3.00
57246,1.84,3.00
57246,1.84,3.01
57246,1.84,3.00
57247,1.84,3.01
57247,1.84,3.01
57247,1.84,3.01
57248,1.84,3.02
57248,1.84,3.02
57248,1.85,3.03
57249,1.85,3.03
57249,1.85,3.03
57249,1.85,3.03
57250,1.86,3.03
57250,1.85,3.03
57250,1.86,3.04
57250,1.86,3.04
57251,1.86,3.04
57251,1.86,3.05
57251,1.86,3.04
57252,1.86,3.05
57252,1.86,3.05
57252,1.85,3.06
57253,1.86,3.06
57253,1.86,3.06
57253,1.86,3.06
57253,1.86,3.06
57254,1.87,3.06
57254,1.87,3.06
57254,1.86,3.07
57255,1.87,3.07
57255,1.87,3.07
57255,1.86,3.08
57256,1.87,3.08
57256,1.87,3.08
57256,1.87,3.08
57256,1.87,3.08
57257,1.87,3.08
57257,1.87,3.08
57257,1.87,3.09
57258,1.87,3.09
57258,1.87,3.10
57258,1.88,3.09
57259,1.87,3.10
57259,1.88,3.10
57259,1.88,3.10
57259,1.87,3.11
57260,1.87,3.10
57260,1.88,3.11
57260,1.88,3.11
57261,1.88,3.11
57261,1.88,3.11
57261,1.87,3.11
57262,1.88,3.11
57262,1.88,3.12
57262,1.89,3.12
57262,1.88,3.12
57263,1.88,3.13
57263,1.88,3.12
57263,1.88,3.13
57264,1.89,3.13
57264,1.88,3.13
57264,1.88,3.13
57265,1.88,3.13
57265,1.88,3.13
57265,1.88,3.14
57266,1.89,3.14
57266,1.88,3.14
57266,1.89,3.15
57266,1.88,3.14
57267,1.89,3.15
57267,1.89,3.15
57267,1.89,3.15
57268,1.89,3.15
57268,1.88,3.16
57268,1.89,3.16
57269,1.89,3.16
57269,1.92,3.16
57269,1.89,3.17
57269,1.89,3.17
57270,1.89,3.16
57270,1.89,3.17
57270,1.89,3.17
57271,1.90,3.17
57271,1.90,3.18
57271,1.90,3.18
57272,1.90,3.18
57272,1.89,3.19
57272,1.89,3.18
57272,1.89,3.19
57273,1.90,3.18
57273,1.90,3.19
57273,1.90,3.19
57274,1.90,3.20
57274,1.90,3.19
57274,1.90,3.20
57275,1.90,3.20
57275,1.90,3.20
57275,1.90,3.20
57275,1.90,3.21
57276,1.90,3.21
57276,1.90,3.21
57276,1.90,3.21
57277,1.90,3.21
57277,1.90,3.22
57277,1.90,3.22
57278,1.90,3.21
57278,1.90,3.22
57278,1.90,3.22
57278,1.91,3.22
57279,1.90,3.22
57279,1.90,3.22
57279,1.91,3.23
57280,1.90,3.23
57280,1.90,3.23
57280,1.90,3.23
57281,1.90,3.23
57281,1.90,3.23
57281,1.90,3.24
57282,1.90,3.23
57282,1.90,3.24
57282,1.90,3.24
57282,1.91,3.24
57283,1.90,3.24
57283,1.90,3.24
57283,1.90,3.25
57284,1.90,3.25
57284,1.91,3.25
57284,1.90,3.25
57285,1.90,3.25
57285,1.90,3.25
57285,1.92,3.26
57285,1.91,3.25
57286,1.90,3.26
57286,1.92,3.26
57286,1.90,3.26
57287,1.91,3.26
57287,1.91,3.26
57287,1.90,3.27
57288,1.91,3.27
57288,1.90,3.27
57288,1.90,3.27
57288,1.91,3.28
57289,1.91,3.28
57289,1.92,3.27
57289,1.90,3.27
57290,1.91,3.28
57290,1.91,3.28
57290,1.91,3.29
57291,1.90,3.29
57291,1.91,3.29
57291,1.91,3.29
57291,1.90,3.29
57292,1.91,3.29
57292,1.90,3.29
57292,1.91,3.29
57293,1.90,3.29
57293,1.91,3.29
57293,1.91,3.30
57294,1.91,3.29
57294,1.91,3.30
57294,1.91,3.30
57294,1.90,3.30
57295,1.90,3.30
57295,1.91,3.30
57295,1.91,3.30
57296,1.91,3.30
57296,1.91,3.30
57296,1.91,3.30
57297,1.91,3.30
57297,1.91,3.30
57297,1.91,3.30
57298,1.91,3.30
57298,1.91,3.30
57298,1.91,3.30
57298,1.91,3.30
57299,1.91,3.30
57299,1.90,3.30
57299,1.90,3.30
57300,1.91,3.30
57300,1.91,3.30
57300,1.91,3.30
57301,1.91,3.30
57301,1.91,3.30
57301,1.90,3.30
57301,1.90,3.30
57302,1.91,3.30
57302,1.91,3.30
57302,1.91,3.30
57303,1.91,3.30
57303,1.90,3.30
57303,1.90,3.30
57304,1.90,3.30
57304,1.91,3.30
57304,1.91,3.30
57304,1.91,3.30
57305,1.91,3.30
57305,1.90,3.30
57305,1.91,3.30
57306,1.91,3.30
57306,1.90,3.30
57306,1.91,3.30
57307,1.90,3.30
57307,1.91,3.30
57307,1.91,3.30
57307,1.91,3.30
57308,1.90,3.30
57308,1.91,3.30
57308,1.91,3.30
57309,1.91,3.30
57309,1.91,3.30
57309,1.89,3.30
57310,1.91,3.30
57310,1.90,3.30
57310,1.90,3.30
57310,1.91,3.30
57311,1.90,3.30
57311,1.90,3.30
57311,1.91,3.30
57312,1.91,3.30
57312,1.91,3.30
57312,1.91,3.30
57313,1.90,3.30
57313,1.91,3.30
57313,1.90,3.30
57314,1.90,3.30
57314,1.90,3.30
57314,1.91,3.30
57314,1.90,3.30
57315,1.90,3.30
57315,1.90,3.30
57315,1.91,3.30
57316,1.90,3.30
57316,1.90,3.30
57316,1.91,3.30
57317,1.90,3.30
57317,1.89,3.30
57317,1.90,3.30
57317,1.91,3.30
57318,1.90,3.30
57318,1.90,3.30
57318,1.90,3.30
57319,1.91,3.30
57319,1.90,3.30
57319,1.91,3.30
57320,1.90,3.30
57320,1.90,3.30
57320,1.92,3.30
57320,1.90,3.30
57321,1.90,3.30
57321,1.90,3.30
57321,1.90,3.30
57322,1.90,3.30
57322,1.90,3.30
57322,1.90,3.30
57323,1.91,3.30
57323,1.90,3.30
57323,1.90,3.30
57323,1.90,3.30
57324,1.90,3.30
57324,1.90,3.30
57324,1.90,3.30
57325,1.90,3.30
57325,1.90,3.30
57325,1.90,3.30
57326,1.90,3.30
57326,1.90,3.30
57326,1.90,3.30
57326,1.90,3.30
57327,1.90,3.30
57327,1.90,3.30
57327,1.90,3.30
57328,1.92,3.30
57328,1.90,3.30
57328,1.90,3.30
57329,1.90,3.30
57329,1.90,3.30
57329,1.90,3.30
57330,1.89,3.30
57330,1.90,3.30
57330,1.91,3.30
57330,1.90,3.30
57331,1.90,3.30
57331,1.90,3.30
57331,1.90,3.30
57332,1.90,3.30
57332,1.90,3.30
57332,1.92,3.30
57333,1.88,3.30
57333,1.90,3.30
57333,1.90,3.30
57333,1.91,3.30
57334,1.90,3.30
57334,1.90,3.30
57334,1.90,3.30
57335,1.90,3.30
57335,1.90,3.30
57335,1.90,3.30
57336,1.90,3.30
57336,1.91,3.30
57336,1.90,3.30
57336,1.90,3.30
57337,1.90,3.30
57337,1.90,3.30
57337,1.90,3.30
57338,1.90,3.30
57338,1.89,3.30
57338,1.90,3.30
57339,1.90,3.30
57339,1.89,3.30
57339,1.90,3.30
57339,1.90,3.30
57340,1.90,3.30
57340,1.90,3.30
57340,1.90,3.30
57341,1.90,3.30
57341,1.90,3.30
57341,1.90,3.30
57342,1.90,3.30
57342,1.90,3.30
57342,1.89,3.30
57342,1.90,3.30
57343,1.90,3.30
57343,1.90,3.30
57343,1.91,3.30
57344,1.90,3.30
57344,1.89,3.30
57344,1.89,3.30
57345,1.90,3.30
57345,1.90,3.30
57345,1.90,3.30
57346,1.90,3.30
57346,1.89,3.30
57346,1.91,3.30
57346,1.90,3.30
57347,1.90,3.30
57347,1.90,3.30
57347,1.90,3.30
57348,1.89,3.30
57348,1.90,3.30
57348,1.89,3.30
57349,1.89,3.30
57349,1.90,3.30
57349,1.89,3.30
57349,1.89,3.30
57350,1.90,3.30
57350,1.90,3.30
57350,1.89,3.30
57351,1.89,3.30
57351,1.90,3.30
57351,1.89,3.30
57352,1.89,3.30
57352,1.89,3.30
57352,1.89,3.30
57352,1.89,3.30
57353,1.89,3.30
57353,1.89,3.30
57353,1.89,3.30
57354,1.89,3.30
57354,1.90,3.30
57354,1.89,3.30
57355,1.89,3.30
57355,1.89,3.30
57355,1.90,3.30
57355,1.89,3.30
57356,1.89,3.30
57356,1.89,3.30
57356,1.90,3.30
57357,1.89,3.30
57357,1.89,3.30
57357,1.89,3.30
57358,1.90,3.30
57358,1.89,3.30
57358,1.89,3.30
57358,1.89,3.30
57359,1.89,3.30
57359,1.89,3.30
57359,1.89,3.30
57360,1.89,3.30
57360,1.90,3.30
57360,1.89,3.30
57361,1.89,3.30
57361,1.89,3.30
57361,1.89,3.30
57362,1.89,3.30
57362,1.89,3.30
57362,1.89,3.30
57362,1.89,3.30
57363,1.87,3.30
57363,1.90,3.30
57363,1.89,3.30
57364,1.89,3.30
57364,1.89,3.30
57364,1.89,3.30
57365,1.89,3.30
57365,1.89,3.30
57365,1.89,3.30
57365,1.89,3.30
57366,1.89,3.30
57366,1.89,3.30
57366,1.89,3.30
57367,1.90,3.30
57367,1.89,3.30
57367,1.89,3.30
57368,1.89,3.30
57368,1.89,3.30
57368,1.89,3.30
57368,1.89,3.30
57369,1.89,3.30
57369,1.90,3.30
57369,1.89,3.30
57370,1.89,3.30
57370,1.89,3.30
57370,1.89,3.30
57371,1.88,3.30
57371,1.89,3.30
57371,1.89,3.30
57371,1.89,3.30
57372,1.89,3.30
57372,1.89,3.30
57372,1.89,3.30
57373,1.88,3.30
57373,1.88,3.30
57373,1.89,3.30
57374,1.89,3.30
57374,1.89,3.30
57374,1.89,3.30
57374,1.88,3.30
57375,1.89,3.30
57375,1.89,3.30
57375,1.89,3.30
57376,1.89,3.30
57376,1.88,3.30
57376,1.89,3.30
57377,1.89,3.30
57377,1.88,3.30
57377,1.89,3.30
57378,1.89,3.30
57378,1.89,3.30
57378,1.89,3.30
57378,1.88,3.30
57379,1.88,3.30
57379,1.88,3.30
57379,1.89,3.30
57380,1.88,3.30
57380,1.89,3.30
57380,1.89,3.30
57381,1.89,3.30
57381,1.88,3.30
57381,1.89,3.30
57381,1.88,3.30
57382,1.89,3.30
57382,1.88,3.30
57382,1.89,3.30
57383,1.88,3.30
57383,1.89,3.30
57383,1.88,3.30
57384,1.89,3.30
57384,1.89,3.30
57384,1.89,3.30
57384,1.88,3.30
57385,1.89,3.30
57385,1.88,3.30
57385,1.88,3.30
57386,1.88,3.30
57386,1.89,3.30
57386,1.88,3.30
57387,1.88,3.30
57387,1.88,3.30
57387,1.89,3.30
57387,1.88,3.30
57388,1.88,3.30
57388,1.88,3.30
57388,1.89,3.30
57389,1.88,3.30
57389,1.89,3.30
57389,1.89,3.30
57390,1.88,3.30
57390,1.89,3.30
57390,1.89,3.30
57390,1.89,3.30
57391,1.89,3.30
57391,1.88,3.30
57391,1.89,3.30
57392,1.88,3.30
57392,1.88,3.30
57392,1.88,3.30
57393,1.89,3.30
57393,1.88,3.30
57393,1.88,3.30
57394,1.88,3.30
57394,1.89,3.30
57394,1.89,3.30
57394,1.89,3.30
57395,1.89,3.30
57395,1.88,3.30
57395,1.88,3.30
57396,1.90,3.30
57396,1.88,3.30
57396,1.89,3.30
57397,1.88,3.30
57397,1.88,3.30
57397,1.88,3.30
57397,1.88,3.30
57398,1.90,3.30
57398,1.88,3.30
57398,1.88,3.30
57399,1.88,3.30
57399,1.88,3.30
57399,1.89,3.30
57400,1.88,3.30
57400,1.88,3.30
57400,1.88,3.30
57400,1.88,3.30
57401,1.88,3.30
57401,1.89,3.30
57401,1.88,3.30
57402,1.89,3.30
57402,1.88,3.30
57402,1.88,3.30
57403,1.90,3.30
57403,1.89,3.30
57403,1.88,3.30
57403,1.88,3.30
57404,1.87,3.30
57404,1.88,3.30
57404,1.87,3.30
57405,1.88,3.30
57405,1.88,3.30
57405,1.88,3.30
57406,1.89,3.30
57406,1.88,3.30
57406,1.89,3.30
57406,1.88,3.30
57407,1.89,3.30
57407,1.88,3.30
57407,1.88,3.30
57408,1.88,3.30
57408,1.88,3.30
57408,1.88,3.30
57409,1.88,3.30
57409,1.88,3.30
57409,1.88,3.30
57410,1.88,3.30
57410,1.88,3.30
57410,1.88,3.30
57410,1.88,3.30
57411,1.88,3.30
57411,1.88,3.30
57411,1.88,3.30
57412,1.88,3.30
57412,1.88,3.30
57412,1.88,3.30
57413,1.88,3.30
57413,1.88,3.30
57413,1.88,3.30
57413,1.88,3.30
57414,1.88,3.30
57414,1.88,3.30
57414,1.88,3.30
57415,1.87,3.30
57415,1.88,3.30
57415,1.88,3.30
57416,1.88,3.30
57416,1.87,3.30
57416,1.88,3.30
57416,1.88,3.30
57417,1.88,3.30
57417,1.88,3.30
57417,1.88,3.30
57418,1.88,3.30
57418,1.88,3.30
57418,1.88,3.30
57419,1.88,3.30
57419,1.88,3.30
57419,1.88,3.30
57419,1.88,3.30
57420,1.88,3.30
57420,1.88,3.30
57420,1.88,3.30
57421,1.88,3.30
57421,1.87,3.30
57421,1.88,3.30
57422,1.87,3.30
57422,1.88,3.30
57422,1.88,3.30
57422,1.88,3.30
57423,1.88,3.30
57423,1.88,3.30
57423,1.88,3.30
57424,1.87,3.30
57424,1.88,3.30
57424,1.87,3.30
57425,1.87,3.30
57425,1.87,3.30
57425,1.88,3.30
57426,1.88,3.30
57426,1.87,3.30
57426,1.87,3.30
57426,1.90,3.30
57427,1.88,3.30
57427,1.88,3.30
57427,1.88,3.30
57428,1.87,3.30
57428,1.87,3.30
57428,1.88,3.30
57429,1.88,3.30
57429,1.87,3.30
57429,1.87,3.30
57429,1.87,3.30
57430,1.87,3.30
57430,1.87,3.30
57430,1.87,3.30
57431,1.88,3.30
57431,1.87,3.30
57431,1.87,3.30
57432,1.88,3.30
57432,1.87,3.30
57432,1.87,3.30
57432,1.87,3.30
57433,1.86,3.30
57433,1.87,3.30
57433,1.87,3.30
57434,1.87,3.30
57434,1.87,3.30
57434,1.87,3.30
57435,1.87,3.30
57435,1.87,3.30
57435,1.87,3.30
57435,1.87,3.30
57436,1.87,3.30
57436,1.87,3.29
57436,1.87,3.29
57437,1.86,3.28
57437,1.86,3.27
57437,1.87,3.27
57438,1.86,3.27
57438,1.86,3.25
57438,1.86,3.25
57438,1.86,3.25
57439,1.86,3.24
57439,1.86,3.24
57439,1.86,3.24
57440,1.86,3.23
57440,1.86,3.22
57440,1.86,3.22
57441,1.86,3.21
57441,1.85,3.21
57441,1.86,3.20
57442,1.85,3.19
57442,1.86,3.18
57442,1.86,3.18
57442,1.85,3.18
57443,1.86,3.18
57443,1.87,3.17
57443,1.85,3.16
57444,1.85,3.16
57444,1.86,3.15
57444,1.85,3.15
57445,1.84,3.14
57445,1.85,3.13
57445,1.84,3.13
57445,1.85,3.13
57446,1.84,3.12
57446,1.84,3.11
57446,1.84,3.11
57447,1.86,3.10
57447,1.84,3.09
57447,1.84,3.09
57448,1.84,3.08
57448,1.84,3.08
57448,1.83,3.07
57448,1.84,3.07
57449,1.84,3.07
57449,1.84,3.07
57449,1.84,3.06
57450,1.83,3.05
57450,1.83,3.05
57450,1.83,3.04
57451,1.84,3.04
57451,1.83,3.03
57451,1.82,3.03
57451,1.83,3.03
57452,1.82,3.02
57452,1.82,3.02
57452,1.82,3.01
57453,1.83,3.01
57453,1.82,3.01
57453,1.83,3.00
57454,1.82,3.00
57454,1.82,2.99
57454,1.82,2.99
57455,1.82,2.98
57455,1.82,2.98
57455,1.82,2.98
57455,1.81,2.97
57456,1.80,2.96
57456,1.81,2.96
57456,1.82,2.96
57457,1.81,2.96
57457,1.81,2.95
57457,1.81,2.95
57458,1.82,2.95
57458,1.82,2.94
57458,1.81,2.94
57458,1.81,2.94
57459,1.80,2.93
57459,1.81,2.93
57459,1.80,2.92
57460,1.80,2.92
57460,1.81,2.92
57460,1.81,2.91
57461,1.81,2.91
57461,1.80,2.91
57461,1.80,2.90
57461,1.80,2.89
57462,1.80,2.89
57462,1.79,2.89
57462,1.79,2.89
57463,1.80,2.89
57463,1.80,2.89
57463,1.81,2.88
57464,1.79,2.88
57464,1.79,2.87
57464,1.79,2.87
57464,1.79,2.87
57465,1.79,2.88
57465,1.79,2.86
57465,1.77,2.86
57466,1.79,2.86
57466,1.79,2.86
57466,1.79,2.86
57467,1.79,2.85
57467,1.79,2.85
57467,1.79,2.85
57467,1.79,2.85
57468,1.78,2.84
57468,1.79,2.84
57468,1.79,2.84
57469,1.79,2.84
57469,1.79,2.83
57469,1.79,2.84
57470,1.78,2.83
57470,1.79,2.83
57470,1.78,2.83
57471,1.78,2.82
57471,1.78,2.82
57471,1.79,2.82
57471,1.78,2.82
57472,1.78,2.82
57472,1.78,2.82
57472,1.78,2.82
57473,1.78,2.82
57473,1.78,2.81
57473,1.78,2.81
57474,1.78,2.81
57474,1.78,2.81
57474,1.78,2.81
57474,1.79,2.81
57475,1.78,2.81
57475,1.78,2.81
57475,1.78,2.84
57476,1.78,2.80
57476,1.78,2.80
57476,1.78,2.80
57477,1.78,2.80
57477,1.79,2.80
57477,1.78,2.80
57477,1.79,2.80
57478,1.78,2.80
57478,1.78,2.80
57478,1.78,2.80
57479,1.78,2.80
57479,1.78,2.80
57479,1.78,2.80
57480,1.78,2.79
57480,1.78,2.80
57480,1.78,2.80
57480,1.78,2.79
57481,1.78,2.79
57481,1.78,2.80
57481,1.78,2.79
57482,1.78,2.80
57482,1.78,2.79
57482,1.77,2.79
57483,1.78,2.79
57483,1.78,2.79
57483,1.78,2.79
57483,1.79,2.79
57484,1.78,2.79
57484,1.79,2.79
57484,1.79,2.80
57485,1.79,2.79
57485,1.78,2.79
57485,1.78,2.80
57486,1.79,2.79
57486,1.79,2.80
57486,1.78,2.80
57487,1.79,2.80
57487,1.79,2.80
57487,1.79,2.80
57487,1.79,2.80
57488,1.79,2.79
57488,1.79,2.80
57488,1.79,2.80
57489,1.81,2.80
57489,1.79,2.80
57489,1.79,2.80
57490,1.79,2.80
57490,1.80,2.80
57490,1.80,2.81
57490,1.79,2.80
57491,1.80,2.81
57491,1.80,2.81
57491,1.80,2.81
57492,1.80,2.81
57492,1.80,2.82
57492,1.81,2.81
57493,1.80,2.82
57493,1.81,2.82
57493,1.79,2.82
57493,1.80,2.82
57494,1.81,2.82
57494,1.81,2.83
57494,1.81,2.84
57495,1.81,2.84
57495,1.81,2.85
57495,1.81,2.84
57496,1.81,2.85
57496,1.81,2.85
57496,1.81,2.85
57496,1.81,2.86
57497,1.81,2.87
57497,1.81,2.87
57497,1.82,2.88
57498,1.81,2.88
57498,1.80,2.88
57498,1.82,2.89
57499,1.82,2.90
57499,1.82,2.90
57499,1.82,2.92
57499,1.83,2.91
57500,1.82,2.92
57500,1.83,2.93
57500,1.83,2.93
57501,1.82,2.94
57501,1.83,2.94
57501,1.83,2.95
57502,1.83,2.95
57502,1.83,2.96
57502,1.84,2.96
57503,1.83,2.96
57503,1.84,2.98
57503,1.84,2.97
57503,1.84,2.98
57504,1.85,2.98
57504,1.84,2.98
57504,1.84,2.99
57505,1.85,2.99
57505,1.84,2.99
57505,1.85,3.00
57506,1.86,3.00
57506,1.84,3.00
57506,1.85,3.01
57506,1.86,3.01
57507,1.85,3.01
57507,1.86,3.02
57507,1.85,3.02
57508,1.87,3.02
57508,1.86,3.02
57508,1.86,3.02
57509,1.85,3.02
57509,1.86,3.02
57509,1.86,3.03
57509,1.86,3.03
57510,1.86,3.03
57510,1.87,3.03
57510,1.86,3.03
57511,1.87,3.04
57511,1.86,3.03
57511,1.86,3.03
57512,1.86,3.03
57512,1.86,3.04
57512,1.86,3.04
57512,1.87,3.04
57513,1.87,3.04
57513,1.87,3.04
57513,1.87,3.03
57514,1.88,3.04
57514,1.88,3.04
57514,1.88,3.04
57515,1.87,3.04
57515,1.87,3.05
57515,1.88,3.05
57515,1.87,3.06
57516,1.88,3.06
57516,1.87,3.06
57516,1.88,3.06
57517,1.88,3.06
57517,1.88,3.07
57517,1.88,3.07
57518,1.88,3.06
57518,1.88,3.07
57518,1.88,3.08
57519,1.89,3.07
57519,1.89,3.07
57519,1.88,3.07
57519,1.89,3.08
57520,1.89,3.08
57520,1.89,3.08
57520,1.89,3.09
57521,1.89,3.08
57521,1.89,3.09
57521,1.90,3.10
57522,1.88,3.09
57522,1.89,3.10
57522,1.89,3.10
57522,1.90,3.11
57523,1.89,3.10
57523,1.90,3.11
57523,1.89,3.11
57524,1.90,3.11
57524,1.90,3.11
57524,1.90,3.12
57525,1.90,3.11
57525,1.91,3.12
57525,1.90,3.12
57525,1.90,3.12
57526,1.91,3.13
57526,1.90,3.13
57526,1.90,3.12
57527,1.90,3.13
57527,1.90,3.13
57527,1.90,3.13
57528,1.90,3.13
57528,1.90,3.14
57528,1.91,3.14
57528,1.91,3.13
57529,1.90,3.14
57529,1.88,3.14
57529,1.90,3.14
57530,1.91,3.14
57530,1.91,3.14
57530,1.91,3.14
57531,1.91,3.15
57531,1.92,3.15
57531,1.92,3.16
57531,1.91,3.16
57532,1.91,3.15
57532,1.91,3.16
57532,1.91,3.16
57533,1.92,3.16
57533,1.92,3.16
57533,1.91,3.17
57534,1.91,3.16
57534,1.91,3.16
57534,1.91,3.17
57535,1.91,3.16
57535,1.91,3.16
57535,1.91,3.17
57535,1.92,3.17
57536,1.91,3.18
57536,1.92,3.17
57536,1.91,3.18
57537,1.91,3.18
57537,1.91,3.18
57537,1.91,3.19
57538,1.92,3.19
57538,1.92,3.18
57538,1.92,3.19
57538,1.91,3.18
57539,1.92,3.19
57539,1.92,3.20
57539,1.92,3.19
57540,1.92,3.19
57540,1.92,3.20
57540,1.91,3.20
57541,1.92,3.20
57541,1.91,3.20
57541,1.92,3.21
57541,1.92,3.21
57542,1.92,3.20
57542,1.92,3.21
57542,1.92,3.20
57543,1.93,3.21
57543,1.92,3.21
57543,1.92,3.21
57544,1.91,3.21
57544,1.92,3.22
57544,1.92,3.21
57544,1.92,3.21
57545,1.92,3.22
57545,1.92,3.23
57545,1.92,3.21
57546,1.93,3.23
57546,1.92,3.22
57546,1.92,3.23
57547,1.92,3.22
57547,1.92,3.23
57547,1.92,3.23
57548,1.93,3.22
57548,1.92,3.23
57548,1.92,3.23
57548,1.92,3.23
57549,1.92,3.24
57549,1.92,3.24
57549,1.92,3.25
57550,1.92,3.24
57550,1.92,3.24
57550,1.92,3.24
57551,1.92,3.24
57551,1.92,3.24
57551,1.92,3.25
57551,1.92,3.25
57552,1.92,3.25
57552,1.92,3.25
57552,1.93,3.30
57553,1.93,3.25
57553,1.93,3.24
57553,1.92,3.25
57554,1.92,3.25
57554,1.92,3.26
57554,1.93,3.25
57554,1.92,3.25
57555,1.92,3.26
57555,1.92,3.26
57555,1.92,3.26
57556,1.92,3.26
57556,1.92,3.27
57556,1.92,3.27
57557,1.93,3.27
57557,1.92,3.28
57557,1.92,3.27
57557,1.92,3.28
57558,1.92,3.27
57558,1.93,3.28
57558,1.93,3.27
57559,1.93,3.27
57559,1.92,3.28
57559,1.92,3.27
57560,1.93,3.29
57560,1.92,3.29
57560,1.91,3.29
57560,1.93,3.29
57561,1.92,3.29
57561,1.92,3.28
57561,1.93,3.29
57562,1.92,3.28
57562,1.92,3.29
57562,1.92,3.29
57563,1.92,3.28
57563,1.92,3.29
57563,1.92,3.29
57564,1.92,3.29
57564,1.92,3.29
57564,1.92,3.30
57564,1.92,3.30
57565,1.92,3.30
57565,1.93,3.30
57565,1.92,3.30
57566,1.93,3.30
57566,1.92,3.30
57566,1.93,3.30
57567,1.92,3.30
57567,1.93,3.30
57567,1.92,3.30
57567,1.92,3.30
57568,1.92,3.30
57568,1.92,3.30
57568,1.93,3.30
57569,1.92,3.30
57569,1.92,3.30
57569,1.92,3.30
57570,1.92,3.30
57570,1.92,3.30
57570,1.92,3.30
57570,1.92,3.30
57571,1.92,3.30
57571,1.92,3.30
57571,1.92,3.30
57572,1.92,3.30
57572,1.92,3.30
57572,1.92,3.30
57573,1.92,3.30
57573,1.92,3.30
57573,1.92,3.30
57573,1.92,3.30
57574,1.92,3.30
57574,1.92,3.30
57574,1.92,3.30
57575,1.92,3.30
57575,1.92,3.30
57575,1.92,3.30
57576,1.92,3.30
57576,1.92,3.30
57576,1.92,3.30
57576,1.92,3.30
57577,1.92,3.30
57577,1.92,3.30
57577,1.92,3.30
57578,1.92,3.30
57578,1.92,3.30
57578,1.92,3.30
57579,1.92,3.30
57579,1.92,3.30
57579,1.92,3.30
57580,1.92,3.30
57580,1.92,3.30
57580,1.94,3.30
57580,1.92,3.30
57581,1.92,3.30
57581,1.92,3.30
57581,1.92,3.30
57582,1.91,3.30
57582,1.91,3.30
57582,1.93,3.30
57583,1.92,3.30
57583,1.92,3.30
57583,1.92,3.30
57583,1.91,3.30
57584,1.92,3.30
57584,1.91,3.30
57584,1.92,3.30
57585,1.92,3.30
57585,1.91,3.30
57585,1.92,3.30
57586,1.92,3.30
57586,1.92,3.30
57586,1.92,3.30
57586,1.92,3.30
57587,1.92,3.30
57587,1.91,3.30
57587,1.92,3.30
57588,1.92,3.30
57588,1.91,3.30
57588,1.91,3.30
57589,1.92,3.30
57589,1.92,3.30
57589,1.92,3.30
57589,1.92,3.30
57590,1.91,3.30
57590,1.92,3.30
57590,1.92,3.30
57591,1.91,3.30
57591,1.92,3.30
57591,1.92,3.30
57592,1.92,3.30
57592,1.92,3.30
57592,1.92,3.30
57592,1.91,3.30
57593,1.91,3.30
57593,1.92,3.30
57593,1.92,3.30
57594,1.92,3.30
57594,1.91,3.30
57594,1.92,3.30
57595,1.92,3.30
57595,1.92,3.30
57595,1.91,3.30
57596,1.92,3.30
57596,1.92,3.30
57596,1.92,3.30
57596,1.92,3.30
57597,1.92,3.30
57597,1.92,3.30
57597,1.91,3.30
57598,1.92,3.30
57598,1.91,3.30
57598,1.92,3.30
57599,1.91,3.30
57599,1.91,3.30
57599,1.91,3.30
57599,1.92,3.30
57600,1.91,3.30
57600,1.91,3.30
57600,1.91,3.30
57601,1.91,3.30
57601,1.92,3.30
57601,1.91,3.30
57602,1.91,3.30
57602,1.91,3.30
57602,1.91,3.30
57602,1.91,3.30
57603,1.91,3.30
57603,1.92,3.30
57603,1.92,3.30
57604,1.91,3.30
57604,1.92,3.30
57604,1.91,3.30
57605,1.91,3.30
57605,1.91,3.30
57605,1.91,3.30
57605,1.91,3.30
57606,1.92,3.30
57606,1.91,3.30
57606,1.92,3.30
57607,1.92,3.30
57607,1.91,3.30
57607,1.91,3.30
57608,1.91,3.30
57608,1.92,3.30
57608,1.91,3.30
57608,1.92,3.30
57609,1.91,3.30
57609,1.91,3.30
57609,1.91,3.30
57610,1.91,3.30
57610,1.92,3.30
57610,1.91,3.30
57611,1.91,3.30
57611,1.91,3.30
57611,1.91,3.30
57612,1.91,3.30
57612,1.91,3.30
57612,1.92,3.30
57612,1.91,3.30
57613,1.91,3.30
57613,1.91,3.30
57613,1.92,3.30
57614,1.92,3.30
57614,1.91,3.30
57614,1.91,3.30
57615,1.91,3.30
57615,1.91,3.30
57615,1.91,3.30
57615,1.92,3.30
57616,1.92,3.30
57616,1.91,3.30
57616,1.91,3.30
57617,1.91,3.30
57617,1.91,3.30
57617,1.91,3.30
57618,1.91,3.30
57618,1.90,3.30
57618,1.92,3.30
57618,1.91,3.30
57619,1.91,3.30
57619,1.91,3.30
57619,1.91,3.30
57620,1.91,3.30
57620,1.91,3.30
57620,1.91,3.30
57621,1.90,3.30
57621,1.91,3.30
57621,1.91,3.30
57621,1.90,3.30
57622,1.91,3.30
57622,1.91,3.30
57622,1.91,3.30
57623,1.91,3.30
57623,1.91,3.30
57623,1.91,3.30
57624,1.91,3.30
57624,1.91,3.30
57624,1.91,3.30
57624,1.90,3.30
57625,1.91,3.30
57625,1.91,3.30
57625,1.91,3.30
57626,1.91,3.30
57626,1.91,3.30
57626,1.90,3.30
57627,1.91,3.30
57627,1.91,3.30
57627,1.91,3.30
57628,1.91,3.30
57628,1.90,3.30
57628,1.90,3.30
57628,1.91,3.30
57629,1.92,3.30
57629,1.90,3.30
57629,1.90,3.30
57630,1.89,3.30
57630,1.90,3.30
57630,1.91,3.30
57631,1.91,3.30
57631,1.91,3.30
57631,1.91,3.30
57631,1.91,3.30
57632,1.90,3.30
57632,1.91,3.30
57632,1.91,3.30
57633,1.91,3.30
57633,1.91,3.30
57633,1.91,3.30
57634,1.91,3.30
57634,1.90,3.30
57634,1.91,3.30
57634,1.90,3.30
57635,1.91,3.30
57635,1.91,3.30
57635,1.91,3.30
57636,1.90,3.30
57636,1.90,3.30
57636,1.90,3.30
57637,1.91,3.30
57637,1.90,3.30
57637,1.91,3.30
57637,1.91,3.30
57638,1.90,3.30
57638,1.90,3.30
57638,1.90,3.30
57639,1.91,3.30
57639,1.91,3.30
57639,1.91,3.30
57640,1.90,3.30
57640,1.91,3.30
57640,1.91,3.30
57640,1.91,3.30
57641,1.91,3.30
57641,1.90,3.30
57641,1.90,3.30
57642,1.91,3.30
57642,1.91,3.30
57642,1.90,3.30
57643,1.90,3.30
57643,1.91,3.30
57643,1.91,3.30
57644,1.91,3.30
57644,1.90,3.30
57644,1.90,3.30
57644,1.91,3.30
57645,1.91,3.30
57645,1.90,3.30
57645,1.91,3.30
57646,1.91,3.30
57646,1.92,3.30
57646,1.90,3.30
57647,1.90,3.30
57647,1.90,3.30
57647,1.90,3.30
57647,1.91,3.30
57648,1.90,3.30
57648,1.90,3.30
57648,1.90,3.30
57649,1.90,3.30
57649,1.91,3.30
57649,1.91,3.30
57650,1.90,3.30
57650,1.91,3.30
57650,1.90,3.30
57650,1.90,3.30
57651,1.91,3.30
57651,1.90,3.30
57651,1.90,3.30
57652,1.90,3.30
57652,1.90,3.30
57652,1.90,3.30
57653,1.90,3.30
57653,1.90,3.30
57653,1.90,3.30
57653,1.90,3.30
57654,1.90,3.30
57654,1.91,3.30
57654,1.91,3.30
57655,1.90,3.30
57655,1.91,3.30
57655,1.90,3.30
57656,1.91,3.30
57656,1.90,3.30
57656,1.90,3.30
57656,1.90,3.30
57657,1.89,3.30
57657,1.91,3.30
57657,1.91,3.30
57658,1.90,3.30
57658,1.91,3.30
57658,1.90,3.30
57659,1.90,3.30
57659,1.90,3.30
57659,1.90,3.30
57660,1.91,3.30
57660,1.91,3.30
57660,1.90,3.30
57660,1.90,3.30
57661,1.91,3.30
57661,1.90,3.30
57661,1.90,3.30
57662,1.91,3.30
57662,1.91,3.30
57662,1.90,3.30
57663,1.91,3.30
57663,1.90,3.30
57663,1.90,3.30
57663,1.90,3.30
57664,1.91,3.30
57664,1.90,3.30
57664,1.90,3.30
57665,1.91,3.30
57665,1.90,3.30
57665,1.90,3.30
57666,1.88,3.30
57666,1.90,3.30
57666,1.91,3.30
57666,1.90,3.30
57667,1.90,3.30
57667,1.90,3.30
57667,1.90,3.30
57668,1.90,3.30
57668,1.90,3.30
57668,1.90,3.30
57669,1.90,3.30
57669,1.90,3.30
57669,1.93,3.30
57669,1.90,3.30
57670,1.90,3.30
57670,1.90,3.30
57670,1.90,3.30
57671,1.90,3.30
57671,1.90,3.30
57671,1.91,3.30
57672,1.91,3.30
57672,1.90,3.30
57672,1.90,3.30
57672,1.90,3.30
57673,1.90,3.30
57673,1.90,3.30
57673,1.90,3.30
57674,1.90,3.30
57674,1.90,3.30
57674,1.90,3.30
57675,1.90,3.30
57675,1.90,3.30
57675,1.90,3.30
57676,1.90,3.30
57676,1.90,3.30
57676,1.90,3.30
57676,1.91,3.30
57677,1.90,3.30
57677,1.90,3.30
57677,1.90,3.30
57678,1.90,3.30
57678,1.90,3.30
57678,1.90,3.30
57679,1.90,3.30
57679,1.90,3.30
57679,1.90,3.30
57679,1.90,3.30
57680,1.90,3.30
57680,1.91,3.30
57680,1.90,3.30
57681,1.90,3.30
57681,1.90,3.30
57681,1.91,3.30
57682,1.90,3.30
57682,1.90,3.30
57682,1.91,3.30
57682,1.90,3.30
57683,1.90,3.30
57683,1.90,3.30
57683,1.90,3.30
57684,1.90,3.30
57684,1.88,3.30
57684,1.91,3.30
57685,1.90,3.30
57685,1.91,3.30
57685,1.90,3.30
57685,1.90,3.30
57686,1.90,3.30
57686,1.91,3.30
57686,1.90,3.30
57687,1.90,3.30
57687,1.90,3.30
57687,1.90,3.30
57688,1.90,3.30
57688,1.90,3.30
57688,1.90,3.30
57688,1.91,3.30
57689,1.90,3.30
57689,1.90,3.30
57689,1.90,3.30
57690,1.90,3.30
57690,1.90,3.30
57690,1.88,3.30
57691,1.91,3.30
57691,1.90,3.30
57691,1.90,3.30
57692,1.90,3.30
57692,1.90,3.30
57692,1.90,3.30
57692,1.90,3.30
57693,1.90,3.30
57693,1.91,3.30
57693,1.90,3.30
57694,1.90,3.30
57694,1.90,3.30
57694,1.90,3.30
57695,1.90,3.30
57695,1.91,3.30
57695,1.90,3.30
57695,1.90,3.30
57696,1.90,3.30
57696,1.91,3.30
57696,1.90,3.30
57697,1.91,3.30
57697,1.90,3.30
57697,1.90,3.30
57698,1.90,3.30
57698,1.91,3.30
57698,1.90,3.30
57698,1.90,3.30
57699,1.90,3.30
57699,1.90,3.30
57699,1.90,3.30
57700,1.90,3.30
57700,1.91,3.30
57700,1.90,3.30
57701,1.90,3.30
57701,1.90,3.30
57701,1.90,3.30
57701,1.90,3.30
57702,1.90,3.30
57702,1.90,3.30
57702,1.90,3.30
57703,1.90,3.30
57703,1.90,3.30
57703,1.90,3.30
57704,1.90,3.30
57704,1.91,3.30
57704,1.90,3.30
57704,1.90,3.30
57705,1.90,3.30
57705,1.90,3.30
57705,1.89,3.30
57706,1.90,3.30
57706,1.90,3.30
57706,1.90,3.30
57707,1.90,3.30
57707,1.90,3.30
57707,1.91,3.30
57707,1.90,3.30
57708,1.90,3.30
57708,1.91,3.30
57708,1.89,3.30
57709,1.90,3.30
57709,1.90,3.30
57709,1.90,3.30
57710,1.90,3.30
57710,1.90,3.30
57710,1.90,3.30
57711,1.90,3.30
57711,1.89,3.30
57711,1.90,3.30
57711,1.90,3.30
57712,1.90,3.30
57712,1.91,3.30
57712,1.90,3.30
57713,1.90,3.30
57713,1.90,3.30
57713,1.90,3.30
57714,1.90,3.30
57714,1.90,3.30
57714,1.90,3.30
57714,1.90,3.30
57715,1.91,3.30
57715,1.90,3.30
57715,1.90,3.30
57716,1.90,3.30
57716,1.90,3.30
57716,1.90,3.30
57717,1.90,3.30
57717,1.90,3.30
57717,1.90,3.30
57717,1.90,3.30
57718,1.90,3.30
57718,1.90,3.30
57718,1.90,3.30
57719,1.90,3.30
57719,1.90,3.30
57719,1.90,3.30
57720,1.90,3.30
57720,1.90,3.30
57720,1.90,3.30
57720,1.90,3.30
57721,1.91,3.30
57721,1.90,3.30
57721,1.90,3.30
57722,1.90,3.30
57722,1.90,3.30
57722,1.90,3.30
57723,1.90,3.30
57723,1.91,3.30
57723,1.89,3.30
57723,1.90,3.30
57724,1.90,3.30
57724,1.90,3.30
57724,1.90,3.30
57725,1.90,3.30
57725,1.90,3.30
57725,1.90,3.30
57726,1.91,3.30
57726,1.90,3.30
57726,1.91,3.30
57727,1.90,3.30
57727,1.90,3.30
57727,1.90,3.30
57727,1.91,3.30
57728,1.91,3.30
57728,1.90,3.30
57728,1.90,3.30
57729,1.89,3.30
57729,1.90,3.30
57729,1.90,3.30
57730,1.90,3.30
57730,1.90,3.30
57730,1.91,3.30
57730,1.90,3.30
57731,1.90,3.30
57731,1.91,3.30
57731,1.90,3.30
57732,1.90,3.30
57732,1.90,3.30
57732,1.90,3.30
57733,1.90,3.30
57733,1.91,3.30
57733,1.92,3.30
57733,1.91,3.30
57734,1.90,3.30
57734,1.91,3.30
57734,1.90,3.30
57735,1.90,3.30
57735,1.91,3.30
57735,1.90,3.30
57736,1.90,3.30
57736,1.91,3.30
57736,1.90,3.30
57736,1.91,3.30
57737,1.90,3.30
57737,1.90,3.30
57737,1.90,3.30
57738,1.90,3.30
57738,1.90,3.30
57738,1.90,3.30
57739,1.90,3.30
57739,1.90,3.30
57739,1.90,3.30
57739,1.90,3.30
57740,1.90,3.30
57740,1.90,3.30
57740,1.90,3.30
57741,1.91,3.30
57741,1.90,3.30
57741,1.90,3.30
57742,1.92,3.30
57742,1.91,3.30
57742,1.90,3.30
57742,1.90,3.30
57743,1.90,3.30
57743,1.90,3.30
57743,1.90,3.30
57744,1.90,3.30
57744,1.90,3.30
57744,1.91,3.30
57745,1.90,3.30
57745,1.90,3.30
57745,1.90,3.30
57746,1.90,3.30
57746,1.90,3.30
57746,1.91,3.30
57746,1.90,3.30
57747,1.90,3.30
57747,1.90,3.30
57747,1.90,3.30
57748,1.90,3.30
57748,1.90,3.30
57748,1.90,3.30
57749,1.90,3.30
57749,1.90,3.30
57749,1.90,3.30
57749,1.91,3.30
57750,1.90,3.30
57750,1.91,3.30
57750,1.90,3.30
57751,1.90,3.30
57751,1.90,3.30
57751,1.90,3.30
57752,1.90,3.30
57752,1.90,3.30
57752,1.90,3.30
57752,1.90,3.30
57753,1.91,3.30
57753,1.90,3.30
57753,1.90,3.30
57754,1.90,3.30
57754,1.90,3.30
57754,1.90,3.30
57755,1.89,3.30
57755,1.90,3.30
57755,1.90,3.30
57755,1.90,3.30
57756,1.91,3.30
57756,1.90,3.30
57756,1.90,3.30
57757,1.90,3.30
57757,1.91,3.30
57757,1.91,3.30
57758,1.90,3.30
57758,1.91,3.30
57758,1.90,3.30
57758,1.90,3.30
57759,1.90,3.30
57759,1.90,3.30
57759,1.90,3.30
57760,1.90,3.30
57760,1.91,3.30
57760,1.91,3.30
57761,1.91,3.30
57761,1.90,3.30
57761,1.91,3.30
57762,1.90,3.30
57762,1.90,3.30
57762,1.91,3.30
57762,1.90,3.30
57763,1.90,3.30
57763,1.90,3.30
57763,1.90,3.30
57764,1.90,3.30
57764,1.89,3.30
57764,1.91,3.30
57765,1.90,3.30
57765,1.91,3.30
57765,1.90,3.30
57765,1.90,3.30
57766,1.90,3.30
57766,1.90,3.30
57766,1.90,3.30
57767,1.90,3.30
57767,1.90,3.30
57767,1.90,3.30
57768,1.91,3.30
57768,1.90,3.30
57768,1.90,3.30
57768,1.92,3.30
57769,1.91,3.30
57769,1.91,3.30
57769,1.91,3.30
57770,1.91,3.30
57770,1.91,3.30
57770,1.90,3.30
57771,1.91,3.30
57771,1.90,3.30
57771,1.90,3.30
57771,1.90,3.30
57772,1.90,3.30
57772,1.90,3.30
57772,1.90,3.30
57773,1.90,3.30
57773,1.90,3.30
57773,1.90,3.30
57774,1.89,3.30
57774,1.90,3.30
57774,1.90,3.30
57774,1.90,3.30
57775,1.90,3.30
57775,1.91,3.30
57775,1.91,3.30
57776,1.90,3.30
57776,1.91,3.30
57776,1.90,3.30
57777,1.91,3.30
57777,1.91,3.30
57777,1.91,3.30
57777,1.90,3.30
57778,1.91,3.30
57778,1.91,3.30
57778,1.90,3.30
57779,1.90,3.30
57779,1.90,3.30
57779,1.91,3.30
57780,1.90,3.30
57780,1.91,3.30
57780,1.90,3.30
57781,1.90,3.30
57781,1.91,3.30
57781,1.91,3.30
57781,1.91,3.30
57782,1.91,3.30
57782,1.91,3.30
57782,1.90,3.30
57783,1.90,3.30
57783,1.90,3.30
57783,1.90,3.30
57784,1.90,3.30
57784,1.91,3.30
57784,1.90,3.30
57784,1.90,3.30
57785,1.90,3.30
57785,1.90,3.30
57785,1.91,3.30
57786,1.91,3.30
57786,1.90,3.30
57786,1.90,3.30
57787,1.90,3.30
57787,1.90,3.30
57787,1.91,3.30
57787,1.91,3.30
57788,1.91,3.30
57788,1.90,3.30
57788,1.90,3.30
57789,1.90,3.30
57789,1.91,3.30
57789,1.90,3.30
57790,1.91,3.30
57790,1.90,3.30
57790,1.91,3.30
57790,1.90,3.30
57791,1.90,3.30
57791,1.90,3.30
57791,1.91,3.30
57792,1.91,3.30
57792,1.91,3.30
57792,1.90,3.30
57793,1.90,3.30
57793,1.90,3.30
57793,1.91,3.30
57793,1.90,3.30
57794,1.91,3.30
57794,1.91,3.30
57794,1.90,3.30
57795,1.91,3.30
57795,1.90,3.30
57795,1.90,3.30
57796,1.90,3.30
57796,1.91,3.30
57796,1.91,3.30
57797,1.90,3.30
57797,1.90,3.30
57797,1.90,3.30
57797,1.91,3.30
57798,1.90,3.30
57798,1.91,3.30
57798,1.90,3.30
57799,1.90,3.30
57799,1.91,3.30
57799,1.90,3.30
57800,1.90,3.30
57800,1.90,3.30
57800,1.91,3.30
57800,1.90,3.30
57801,1.91,3.30
57801,1.90,3.30
57801,1.91,3.30
57802,1.90,3.30
57802,1.91,3.30
57802,1.92,3.30
57803,1.90,3.30
57803,1.91,3.30
57803,1.91,3.30
57803,1.90,3.30
57804,1.90,3.30
57804,1.90,3.30
57804,1.90,3.30
57805,1.90,3.30
57805,1.91,3.30
57805,1.90,3.30
57806,1.90,3.30
57806,1.91,3.30
57806,1.90,3.30
57806,1.91,3.30
57807,1.90,3.30
57807,1.91,3.30
57807,1.91,3.30
57808,1.91,3.30
57808,1.90,3.30
57808,1.90,3.30
57809,1.90,3.30
57809,1.91,3.30
57809,1.91,3.30
57809,1.90,3.30
57810,1.90,3.30
57810,1.90,3.30
57810,1.90,3.30
57811,1.90,3.30
57811,1.91,3.30
57811,1.90,3.30
57812,1.90,3.30
57812,1.91,3.30
57812,1.90,3.30
57813,1.91,3.30
57813,1.90,3.30
57813,1.90,3.30
57813,1.90,3.30
57814,1.91,3.30
57814,1.91,3.30
57814,1.91,3.30
57815,1.91,3.30
57815,1.90,3.30
57815,1.91,3.30
57816,1.90,3.30
57816,1.92,3.30
57816,1.91,3.30
57816,1.91,3.30
57817,1.90,3.30
57817,1.90,3.30
57817,1.90,3.30
57818,1.90,3.30
57818,1.90,3.30
57818,1.90,3.30
57819,1.91,3.30
57819,1.91,3.30
57819,1.89,3.30
57819,1.91,3.30
57820,1.90,3.30
57820,1.92,3.30
57820,1.91,3.30
57821,1.90,3.30
57821,1.91,3.30
57821,1.91,3.30
57822,1.91,3.30
57822,1.91,3.30
57822,1.91,3.30
57822,1.91,3.30
57823,1.91,3.30
57823,1.91,3.30
57823,1.91,3.30
57824,1.91,3.30
57824,1.91,3.30
57824,1.91,3.30
57825,1.91,3.30
57825,1.90,3.30
57825,1.90,3.30
57825,1.90,3.30
57826,1.91,3.30
57826,1.91,3.30
57826,1.91,3.30
57827,1.91,3.30
57827,1.91,3.30
57827,1.91,3.30
57828,1.91,3.30
57828,1.91,3.30
57828,1.91,3.30
57828,1.91,3.30
57829,1.93,3.30
57829,1.91,3.30
57829,1.90,3.30
57830,1.90,3.30
57830,1.91,3.30
57830,1.91,3.30
57831,1.90,3.30
57831,1.91,3.30
57831,1.89,3.30
57832,1.90,3.30
57832,1.91,3.30
57832,1.91,3.30
57832,1.91,3.30
57833,1.90,3.30
57833,1.91,3.30
57833,1.91,3.30
57834,1.91,3.30
57834,1.91,3.30
57834,1.91,3.30
57835,1.89,3.30
57835,1.91,3.30
57835,1.91,3.30
57835,1.91,3.30
57836,1.91,3.30
57836,1.91,3.30
57836,1.91,3.30
57837,1.91,3.30
57837,1.91,3.30
57837,1.91,3.30
57838,1.91,3.30
57838,1.91,3.30
57838,1.90,3.30
57838,1.91,3.30
57839,1.91,3.30
57839,1.91,3.30
57839,1.91,3.30
57840,1.91,3.30
57840,1.90,3.30
57840,1.91,3.30
57841,1.90,3.30
57841,1.90,3.30
57841,1.90,3.30
57841,1.91,3.30
57842,1.91,3.30
57842,1.91,3.30
57842,1.91,3.30
57843,1.91,3.30
57843,1.91,3.30
57843,1.90,3.30
57844,1.90,3.30
57844,1.91,3.30
57844,1.91,3.30
57844,1.91,3.30
57845,1.92,3.30
57845,1.90,3.30
57845,1.91,3.30
57846,1.91,3.30
57846,1.91,3.30
57846,1.91,3.30
57847,1.91,3.30
57847,1.91,3.30
57847,1.91,3.30
57848,1.90,3.30
57848,1.91,3.30
57848,1.91,3.30
57848,1.91,3.30
57849,1.90,3.30
57849,1.91,3.30
57849,1.91,3.30
57850,1.90,3.30
57850,1.90,3.30
57850,1.90,3.30
57851,1.91,3.30
57851,1.91,3.30
57851,1.91,3.30
57851,1.91,3.30
57852,1.91,3.30
57852,1.91,3.30
57852,1.90,3.30
57853,1.91,3.30
57853,1.90,3.30
57853,1.91,3.30
57854,1.91,3.30
57854,1.90,3.30
57854,1.91,3.30
57854,1.91,3.30
57855,1.90,3.30
57855,1.91,3.30
57855,1.90,3.30
57856,1.92,3.30
57856,1.91,3.30
57856,1.91,3.30
57857,1.90,3.30
57857,1.90,3.30
57857,1.90,3.30
57857,1.91,3.30
57858,1.90,3.30
57858,1.90,3.30
57858,1.90,3.30
57859,1.91,3.30
57859,1.90,3.30
57859,1.91,3.30
57860,1.91,3.30
57860,1.93,3.30
57860,1.91,3.30
57860,1.91,3.30
57861,1.91,3.30
57861,1.90,3.30
57861,1.92,3.30
57862,1.91,3.30
57862,1.91,3.30
57862,1.91,3.30
57863,1.90,3.30
57863,1.91,3.30
57863,1.91,3.30
57864,1.91,3.30
57864,1.91,3.30
57864,1.91,3.30
57864,1.91,3.30
57865,1.91,3.30
57865,1.92,3.30
57865,1.91,3.30
57866,1.91,3.30
57866,1.90,3.30
57866,1.90,3.30
57867,1.91,3.30
57867,1.91,3.30
57867,1.91,3.30
57867,1.90,3.30
57868,1.91,3.30
57868,1.91,3.30
57868,1.91,3.30
57869,1.91,3.30
57869,1.91,3.30
57869,1.91,3.30
57870,1.91,3.30
57870,1.91,3.30
57870,1.91,3.30
57870,1.91,3.30
57871,1.91,3.30
57871,1.92,3.30
57871,1.91,3.30
57872,1.91,3.30
57872,1.91,3.30
57872,1.92,3.30
57873,1.91,3.30
57873,1.91,3.30
57873,1.90,3.30
57873,1.92,3.30
57874,1.91,3.30
57874,1.91,3.30
57874,1.91,3.30
57875,1.91,3.30
57875,1.91,3.30
57875,1.89,3.30
57876,1.91,3.30
57876,1.91,3.30
57876,1.91,3.30
57876,1.90,3.30
57877,1.91,3.30
57877,1.91,3.30
57877,1.91,3.30
57878,1.91,3.30
57878,1.91,3.30
57878,1.91,3.30
57879,1.91,3.30
57879,1.90,3.30
57879,1.93,3.30
57880,1.91,3.30
57880,1.90,3.30
57880,1.91,3.30
57880,1.91,3.30
57881,1.91,3.30
57881,1.91,3.30
57881,1.91,3.30
57882,1.91,3.30
57882,1.91,3.30
57882,1.91,3.30
57883,1.94,3.30
57883,1.91,3.30
57883,1.91,3.30
57883,1.93,3.30
57884,1.91,3.30
57884,1.91,3.30
57884,1.90,3.30
57885,1.91,3.30
57885,1.91,3.30
57885,1.91,3.30
57886,1.91,3.30
57886,1.90,3.30
57886,1.91,3.30
57886,1.91,3.30
57887,1.91,3.30
57887,1.91,3.30
57887,1.91,3.30
57888,1.93,3.30
57888,1.91,3.30
57888,1.91,3.30
57889,1.91,3.30
57889,1.91,3.30
57889,1.91,3.30
57889,1.90,3.30
57890,1.91,3.30
57890,1.90,3.30
57890,1.91,3.30
57891,1.91,3.30
57891,1.91,3.30
57891,1.91,3.30
57892,1.91,3.30
57892,1.91,3.30
57892,1.91,3.30
57892,1.92,3.30
57893,1.91,3.30
57893,1.91,3.30
57893,1.91,3.30
57894,1.91,3.30
57894,1.91,3.30
57894,1.91,3.30
57895,1.91,3.30
57895,1.91,3.30
57895,1.91,3.30
57896,1.91,3.30
57896,1.91,3.30
57896,1.91,3.30
57896,1.91,3.30
57897,1.91,3.30
57897,1.91,3.30
57897,1.91,3.30
57898,1.91,3.30
57898,1.91,3.30
57898,1.92,3.30
57899,1.90,3.30
57899,1.91,3.30
57899,1.91,3.30
57899,1.91,3.30
57900,1.91,3.30
57900,1.91,3.30
57900,1.91,3.30
57901,1.91,3.30
57901,1.91,3.30
57901,1.91,3.30
57902,1.92,3.30
57902,1.92,3.30
57902,1.91,3.30
57902,1.91,3.30
57903,1.91,3.30
57903,1.91,3.30
57903,1.91,3.30
57904,1.91,3.30
57904,1.91,3.30
57904,1.92,3.30
57905,1.91,3.30
57905,1.91,3.30
57905,1.91,3.30
57905,1.91,3.30
57906,1.91,3.30
57906,1.91,3.30
57906,1.91,3.30
57907,1.91,3.30
57907,1.91,3.30
57907,1.91,3.30
57908,1.91,3.30
57908,1.92,3.30
57908,1.91,3.30
57908,1.91,3.30
57909,1.92,3.30
57909,1.91,3.30
57909,1.91,3.30
57910,1.91,3.30
57910,1.92,3.30
57910,1.91,3.30
57911,1.91,3.30
57911,1.91,3.30
57911,1.91,3.30
57912,1.91,3.30
57912,1.91,3.30
57912,1.91,3.30
57912,1.91,3.30
57913,1.91,3.30
57913,1.92,3.30
57913,1.91,3.30
57914,1.90,3.30
57914,1.91,3.30
57914,1.91,3.30
57915,1.91,3.30
57915,1.89,3.30
57915,1.91,3.30
57915,1.91,3.30
57916,1.91,3.30
57916,1.91,3.30
57916,1.91,3.30
57917,1.93,3.30
57917,1.91,3.30
57917,1.91,3.30
57918,1.91,3.30
57918,1.91,3.30
57918,1.91,3.30
57918,1.92,3.30
57919,1.91,3.30
57919,1.91,3.30
57919,1.91,3.30
57920,1.92,3.30
57920,1.91,3.30
57920,1.91,3.30
57921,1.91,3.30
57921,1.91,3.30
57921,1.91,3.30
57921,1.92,3.30
57922,1.92,3.30
57922,1.91,3.30
57922,1.91,3.30
57923,1.90,3.30
57923,1.91,3.30
57923,1.91,3.30
57924,1.91,3.30
57924,1.92,3.30
57924,1.91,3.30
57924,1.92,3.30
57925,1.90,3.30
57925,1.91,3.30
57925,1.91,3.30
57926,1.91,3.30
57926,1.91,3.30
57926,1.91,3.30
57927,1.92,3.30
57927,1.91,3.30
57927,1.92,3.30
57928,1.92,3.30
57928,1.91,3.30
57928,1.91,3.30
57928,1.91,3.30
57929,1.91,3.30
57929,1.92,3.30
57929,1.91,3.30
57930,1.91,3.30
57930,1.91,3.30
57930,1.90,3.30
57931,1.92,3.30
57931,1.91,3.30
57931,1.92,3.30
57931,1.91,3.30
57932,1.91,3.30
57932,1.91,3.30
57932,1.91,3.30
57933,1.92,3.30
57933,1.91,3.30
57933,1.91,3.30
57934,1.91,3.30
57934,1.93,3.30
57934,1.91,3.30
57934,1.92,3.30
57935,1.91,3.30
57935,1.92,3.30
57935,1.92,3.30
57936,1.91,3.30
57936,1.92,3.30
57936,1.91,3.30
57937,1.92,3.30
57937,1.92,3.30
57937,1.92,3.30
57937,1.92,3.30
57938,1.90,3.30
57938,1.91,3.30
57938,1.91,3.30
57939,1.91,3.30
57939,1.92,3.30
57939,1.92,3.30
57940,1.92,3.30
57940,1.91,3.30
57940,1.92,3.30
57940,1.91,3.30
57941,1.89,3.30
57941,1.92,3.30
57941,1.91,3.30
57942,1.93,3.30
57942,1.92,3.30
57942,1.92,3.30
57943,1.91,3.30
57943,1.92,3.30
57943,1.91,3.30
57944,1.91,3.30
57944,1.91,3.30
57944,1.91,3.30
57944,1.92,3.30
57945,1.91,3.30
57945,1.92,3.30
57945,1.92,3.30
57946,1.91,3.30
57946,1.92,3.30
57946,1.92,3.30
57947,1.93,3.30
57947,1.91,3.30
57947,1.91,3.30
57947,1.92,3.30
57948,1.92,3.30
57948,1.92,3.30
57948,1.92,3.30
57949,1.92,3.30
57949,1.92,3.30
57949,1.92,3.30
57950,1.92,3.30
57950,1.92,3.30
57950,1.92,3.30
57950,1.92,3.30
57951,1.92,3.30
57951,1.92,3.30
57951,1.91,3.30
57952,1.91,3.30
57952,1.90,3.30
57952,1.92,3.30
57953,1.91,3.30
57953,1.92,3.30
57953,1.92,3.30
57953,1.91,3.30
57954,1.92,3.30
57954,1.92,3.30
57954,1.92,3.30
57955,1.92,3.30
57955,1.92,3.30
57955,1.92,3.30
57956,1.92,3.30
57956,1.92,3.30
57956,1.92,3.30
57956,1.92,3.30
57957,1.92,3.30
57957,1.92,3.30
57957,1.92,3.30
57958,1.92,3.30
57958,1.92,3.30
57958,1.92,3.30
57959,1.91,3.30
57959,1.92,3.30
57959,1.92,3.30
57960,1.92,3.30
57960,1.92,3.30
57960,1.92,3.30
57960,1.92,3.30
57961,1.92,3.30
57961,1.92,3.30
57961,1.92,3.30
57962,1.92,3.30
57962,1.92,3.30
57962,1.92,3.30
57963,1.92,3.30
57963,1.92,3.30
57963,1.92,3.30
57963,1.92,3.30
57964,1.92,3.30
57964,1.92,3.30
57964,1.92,3.30
57965,1.92,3.30
57965,1.92,3.30
57965,1.92,3.30
57966,1.92,3.30
57966,1.92,3.30
57966,1.92,3.30
57966,1.91,3.30
57967,1.91,3.30
57967,1.92,3.30
57967,1.92,3.30
57968,1.92,3.30
57968,1.92,3.30
57968,1.92,3.30
57969,1.92,3.30
57969,1.92,3.30
57969,1.92,3.30
57969,1.92,3.30
57970,1.94,3.30
57970,1.92,3.30
57970,1.92,3.30
57971,1.92,3.30
57971,1.91,3.30
57971,1.92,3.30
57972,1.92,3.30
57972,1.92,3.30
57972,1.92,3.30
57972,1.92,3.30
57973,1.92,3.30
57973,1.92,3.30
57973,1.92,3.30
57974,1.92,3.30
57974,1.92,3.30
57974,1.92,3.30
57975,1.92,3.30
57975,1.92,3.30
57975,1.92,3.30
57976,1.92,3.30
57976,1.92,3.30
57976,1.92,3.30
57976,1.92,3.30
57977,1.92,3.30
57977,1.92,3.30
57977,1.92,3.30
57978,1.91,3.30
57978,1.92,3.30
57978,1.92,3.30
57979,1.92,3.30
57979,1.92,3.30
57979,1.92,3.30
57979,1.92,3.30
57980,1.92,3.30
57980,1.91,3.30
57980,1.92,3.30
57981,1.92,3.30
57981,1.92,3.30
57981,1.92,3.30
57982,1.92,3.30
57982,1.92,3.30
57982,1.92,3.30
57982,1.92,3.30
57983,1.92,3.30
57983,1.93,3.30
57983,1.92,3.30
57984,1.92,3.30
57984,1.92,3.30
57984,1.92,3.30
57985,1.92,3.30
57985,1.92,3.30
57985,1.93,3.30
57985,1.92,3.30
57986,1.92,3.30
57986,1.92,3.30
57986,1.92,3.30
57987,1.92,3.30
57987,1.92,3.30
57987,1.92,3.30
57988,1.92,3.30
57988,1.92,3.30
57988,1.92,3.30
57988,1.93,3.30
57989,1.93,3.30
57989,1.92,3.30
57989,1.92,3.30
57990,1.93,3.30
57990,1.92,3.30
57990,1.93,3.30
57991,1.92,3.30
57991,1.92,3.30
57991,1.92,3.30
57992,1.92,3.30
57992,1.92,3.30
57992,1.92,3.30
57992,1.93,3.30
57993,1.92,3.30
57993,1.92,3.30
57993,1.92,3.30
57994,1.93,3.30
57994,1.92,3.30
57994,1.92,3.30
57995,1.92,3.30
57995,1.92,3.30
57995,1.92,3.30
57995,1.93,3.30
57996,1.92,3.30
57996,1.92,3.30
57996,1.93,3.30
57997,1.92,3.30
57997,1.92,3.30
57997,1.92,3.30
57998,1.92,3.30
57998,1.93,3.30
57998,1.92,3.30
57998,1.92,3.30
57999,1.92,3.30
57999,1.93,3.30
57999,1.93,3.30
58000,1.92,3.30
58000,1.92,3.30
58000,1.92,3.30
58001,1.92,3.30
58001,1.93,3.30
58001,1.92,3.30
58001,1.92,3.30
58002,1.93,3.30
58002,1.92,3.30
58002,1.93,3.30
58003,1.92,3.30
58003,1.92,3.30
58003,1.92,3.30
58004,1.92,3.30
58004,1.92,3.30
58004,1.92,3.30
58004,1.90,3.30
58005,1.92,3.30
58005,1.92,3.30
58005,1.92,3.30
58006,1.93,3.30
58006,1.93,3.30
58006,1.92,3.30
58007,1.92,3.30
58007,1.93,3.30
58007,1.93,3.30
58008,1.93,3.30
58008,1.92,3.30
58008,1.90,3.30
58008,1.93,3.30
58009,1.92,3.30
58009,1.92,3.30
58009,1.92,3.30
58010,1.92,3.30
58010,1.92,3.30
58010,1.92,3.30
58011,1.92,3.30
58011,1.93,3.30
58011,1.92,3.30
58011,1.93,3.30
58012,1.92,3.30
58012,1.92,3.30
58012,1.92,3.30
58013,1.93,3.30
58013,1.92,3.30
58013,1.92,3.30
58014,1.93,3.30
58014,1.92,3.30
58014,1.93,3.30
58014,1.93,3.30
58015,1.93,3.30
58015,1.95,3.30
58015,1.93,3.30
58016,1.92,3.30
58016,1.93,3.30
58016,1.92,3.30
58017,1.92,3.30
58017,1.92,3.30
58017,1.93,3.30
58017,1.93,3.30
58018,1.92,3.30
58018,1.91,3.30
58018,1.93,3.30
58019,1.92,3.30
58019,1.92,3.30
58019,1.92,3.30
58020,1.92,3.30
58020,1.94,3.30
58020,1.93,3.30
58020,1.92,3.30
58021,1.92,3.30
58021,1.93,3.30
58021,1.93,3.30
58022,1.92,3.30
58022,1.93,3.30
58022,1.95,3.30
58023,1.92,3.30
58023,1.92,3.30
58023,1.92,3.30
58024,1.90,3.30
58024,1.93,3.30
58024,1.93,3.30
58024,1.93,3.30
58025,1.93,3.30
58025,1.93,3.30
58025,1.93,3.30
58026,1.93,3.30
58026,1.92,3.30
58026,1.93,3.30
58027,1.93,3.30
58027,1.93,3.30
58027,1.92,3.30
58027,1.93,3.30
58028,1.93,3.30
58028,1.92,3.30
58028,1.93,3.30
58029,1.93,3.30
58029,1.92,3.30
58029,1.93,3.30
58030,1.93,3.30
58030,1.93,3.30
58030,1.93,3.30
58030,1.93,3.30
58031,1.93,3.30
58031,1.93,3.30
58031,1.93,3.30
58032,1.93,3.30
58032,1.93,3.30
58032,1.93,3.30
58033,1.93,3.30
58033,1.93,3.30
58033,1.92,3.30
58033,1.93,3.30
58034,1.93,3.30
58034,1.94,3.30
58034,1.93,3.30
58035,1.93,3.30
58035,1.94,3.30
58035,1.93,3.30
58036,1.92,3.30
58036,1.93,3.30
58036,1.92,3.30
58036,1.93,3.30
58037,1.93,3.30
58037,1.93,3.30
58037,1.93,3.30
58038,1.93,3.30
58038,1.93,3.30
58038,1.93,3.30
58039,1.93,3.30
58039,1.93,3.30
58039,1.93,3.30
58040,1.93,3.30
58040,1.93,3.30
58040,1.93,3.30
58040,1.93,3.30
58041,1.93,3.30
58041,1.93,3.30
58041,1.93,3.30
58042,1.93,3.30
58042,1.92,3.30
58042,1.93,3.30
58043,1.93,3.30
58043,1.93,3.30
58043,1.92,3.30
58043,1.93,3.30
58044,1.93,3.30
58044,1.93,3.30
58044,1.93,3.30
58045,1.93,3.30
58045,1.93,3.30
58045,1.93,3.30
58046,1.93,3.30
58046,1.93,3.30
58046,1.93,3.30
58046,1.93,3.30
58047,1.95,3.30
58047,1.93,3.30
58047,1.93,3.30
58048,1.95,3.30
58048,1.93,3.30
58048,1.93,3.30
58049,1.93,3.30
58049,1.93,3.30
58049,1.93,3.30
58049,1.93,3.30
58050,1.92,3.30
58050,1.93,3.30
58050,1.93,3.30
58051,1.93,3.30
58051,1.93,3.30
58051,1.93,3.30
58052,1.93,3.30
58052,1.93,3.30
58052,1.93,3.30
58052,1.93,3.30
58053,1.93,3.30
58053,1.92,3.30
58053,1.93,3.30
58054,1.93,3.30
58054,1.93,3.30
58054,1.94,3.30
58055,1.92,3.30
58055,1.93,3.30
58055,1.93,3.30
58056,1.94,3.30
58056,1.93,3.30
58056,1.93,3.30
58056,1.93,3.30
58057,1.93,3.30
58057,1.92,3.30
58057,1.93,3.30
58058,1.93,3.30
58058,1.93,3.30
58058,1.93,3.30
58059,1.93,3.30
58059,1.93,3.30
58059,1.93,3.30
58059,1.93,3.30
58060,1.93,3.30
58060,1.94,3.30
58060,1.93,3.30
58061,1.93,3.30
58061,1.93,3.30
58061,1.93,3.30
58062,1.94,3.30
58062,1.94,3.30
58062,1.93,3.30
58062,1.93,3.30
58063,1.93,3.30
58063,1.93,3.30
58063,1.93,3.30
58064,1.93,3.30
58064,1.92,3.30
58064,1.93,3.30
58065,1.93,3.30
58065,1.91,3.30
58065,1.95,3.30
58065,1.93,3.30
58066,1.93,3.30
58066,1.94,3.30
58066,1.93,3.30
58067,1.93,3.30
58067,1.94,3.30
58067,1.94,3.30
58068,1.93,3.30
58068,1.93,3.30
58068,1.93,3.30
58068,1.93,3.30
58069,1.93,3.30
58069,1.93,3.30
58069,1.93,3.30
58070,1.93,3.30
58070,1.93,3.30
58070,1.93,3.30
58071,1.93,3.30
58071,1.93,3.30
58071,1.93,3.30
58072,1.94,3.30
58072,1.93,3.30
58072,1.93,3.30
58072,1.93,3.30
58073,1.93,3.30
58073,1.94,3.30
58073,1.94,3.30
58074,1.93,3.30
58074,1.93,3.30
58074,1.93,3.30
58075,1.93,3.30
58075,1.93,3.30
58075,1.93,3.30
58075,1.93,3.30
58076,1.93,3.30
58076,1.93,3.30
58076,1.93,3.30
58077,1.93,3.30
58077,1.92,3.30
58077,1.93,3.30
58078,1.93,3.30
58078,1.93,3.30
58078,1.93,3.30
58078,1.93,3.30
58079,1.93,3.30
58079,1.93,3.30
58079,1.93,3.30
58080,1.93,3.30
58080,1.93,3.30
58080,1.93,3.30
58081,1.93,3.30
58081,1.93,3.30
58081,1.94,3.30
58081,1.93,3.30
58082,1.93,3.30
58082,1.94,3.30
58082,1.93,3.30
58083,1.93,3.30
58083,1.93,3.30
58083,1.94,3.30
58084,1.93,3.30
58084,1.93,3.30
58084,1.93,3.30
58084,1.93,3.30
58085,1.93,3.30
58085,1.93,3.30
58085,1.93,3.30
58086,1.93,3.30
58086,1.93,3.30
58086,1.93,3.30
58087,1.93,3.30
58087,1.93,3.30
58087,1.94,3.30
58088,1.93,3.30
58088,1.93,3.30
58088,1.92,3.30
58088,1.93,3.30
58089,1.93,3.30
58089,1.93,3.30
58089,1.94,3.30
58090,1.93,3.30
58090,1.94,3.30
58090,1.94,3.30
58091,1.92,3.30
58091,1.93,3.30
58091,1.92,3.30
58091,1.93,3.30
58092,1.94,3.30
58092,1.93,3.30
58092,1.93,3.30
58093,1.93,3.30
58093,1.94,3.30
58093,1.92,3.30
58094,1.94,3.30
58094,1.93,3.30
58094,1.94,3.30
58094,1.95,3.30
58095,1.93,3.30
58095,1.93,3.30
58095,1.93,3.30
58096,1.93,3.30
58096,1.93,3.30
58096,1.93,3.30
58097,1.93,3.30
58097,1.93,3.30
58097,1.93,3.30
58097,1.93,3.30
58098,1.93,3.30
58098,1.93,3.30
58098,1.93,3.30
58099,1.93,3.30
58099,1.94,3.30
58099,1.93,3.30
58100,1.93,3.30
58100,1.94,3.30
58100,1.94,3.30
58100,1.93,3.30
58101,1.93,3.30
58101,1.94,3.30
58101,1.93,3.30
58102,1.93,3.30
58102,1.94,3.30
58102,1.93,3.30
58103,1.93,3.30
58103,1.94,3.30
58103,1.94,3.30
58104,1.93,3.30
58104,1.93,3.30
58104,1.93,3.30
58104,1.93,3.30
58105,1.93,3.30
58105,1.93,3.30
58105,1.93,3.30
58106,1.93,3.30
58106,1.93,3.30
58106,1.94,3.30
58107,1.93,3.30
58107,1.94,3.30
58107,1.93,3.30
58107,1.93,3.30
58108,1.93,3.30
58108,1.94,3.30
58108,1.93,3.30
58109,1.93,3.30
58109,1.93,3.30
58109,1.91,3.30
58110,1.95,3.30
58110,1.94,3.30
58110,1.93,3.30
58110,1.93,3.30
58111,1.93,3.30
58111,1.93,3.30
58111,1.93,3.30
58112,1.93,3.30
58112,1.93,3.30
58112,1.94,3.30
58113,1.94,3.30
58113,1.94,3.30
58113,1.94,3.30
58113,1.93,3.30
58114,1.94,3.30
58114,1.94,3.30
58114,1.94,3.30
58115,1.94,3.30
58115,1.93,3.30
58115,1.93,3.30
58116,1.93,3.30
58116,1.93,3.30
58116,1.93,3.30
58116,1.93,3.30
58117,1.93,3.30
58117,1.94,3.30
58117,1.94,3.30
58118,1.93,3.30
58118,1.93,3.30
58118,1.93,3.30
58119,1.93,3.30
58119,1.93,3.30
58119,1.94,3.30
58120,1.93,3.30
58120,1.93,3.30
58120,1.94,3.30
58120,1.93,3.30
58121,1.94,3.30
58121,1.93,3.30
58121,1.94,3.30
58122,1.93,3.30
58122,1.94,3.30
58122,1.93,3.30
58123,1.93,3.30
58123,1.93,3.30
58123,1.94,3.30
58123,1.93,3.30
58124,1.93,3.30
58124,1.93,3.30
58124,1.93,3.30
58125,1.93,3.30
58125,1.94,3.30
58125,1.93,3.30
58126,1.93,3.30
58126,1.94,3.30
58126,1.94,3.30
58126,1.93,3.30
58127,1.93,3.30
58127,1.93,3.30
58127,1.94,3.30
58128,1.93,3.30
58128,1.94,3.30
58128,1.93,3.30
58129,1.93,3.30
58129,1.94,3.30
58129,1.93,3.30
58129,1.94,3.30
58130,1.93,3.30
58130,1.94,3.30
58130,1.93,3.30
58131,1.93,3.30
58131,1.94,3.30
58131,1.93,3.30
58132,1.93,3.30
58132,1.93,3.30
58132,1.94,3.30
58132,1.93,3.30
58133,1.93,3.30
58133,1.94,3.30
58133,1.93,3.30
58134,1.94,3.30
58134,1.94,3.30
58134,1.93,3.30
58135,1.93,3.30
58135,1.93,3.30
58135,1.93,3.30
58136,1.93,3.30
58136,1.93,3.30
58136,1.94,3.30
58136,1.94,3.30
58137,1.94,3.30
58137,1.93,3.30
58137,1.94,3.30
58138,1.93,3.30
58138,1.93,3.30
58138,1.94,3.30
58139,1.93,3.30
58139,1.94,3.30
58139,1.93,3.30
58139,1.93,3.30
58140,1.93,3.30
58140,1.94,3.30
58140,1.93,3.30
58141,1.93,3.30
58141,1.93,3.30
58141,1.94,3.30
58142,1.93,3.30
58142,1.94,3.30
58142,1.93,3.30
58142,1.93,3.30
58143,1.93,3.30
58143,1.94,3.30
58143,1.93,3.30
58144,1.93,3.30
58144,1.93,3.30
58144,1.93,3.30
58145,1.94,3.30
58145,1.94,3.30
58145,1.94,3.30
58145,1.93,3.30
58146,1.93,3.30
58146,1.93,3.30
58146,1.93,3.30
58147,1.93,3.30
58147,1.94,3.30
58147,1.94,3.30
58148,1.93,3.30
58148,1.93,3.30
58148,1.94,3.30
58148,1.93,3.30
58149,1.93,3.30
58149,1.93,3.30
58149,1.93,3.30
58150,1.93,3.30
58150,1.93,3.30
58150,1.94,3.30
58151,1.93,3.30
58151,1.93,3.30
58151,1.93,3.30
58152,1.94,3.30
58152,1.93,3.30
58152,1.94,3.30
58152,1.93,3.30
58153,1.93,3.30
58153,1.94,3.30
58153,1.93,3.30
58154,1.94,3.30
58154,1.94,3.30
58154,1.93,3.30
58155,1.93,3.30
58155,1.94,3.30
58155,1.93,3.30
58155,1.93,3.30
58156,1.94,3.30
58156,1.94,3.30
58156,1.93,3.30
58157,1.93,3.30
58157,1.93,3.30
58157,1.93,3.30
58158,1.93,3.30
58158,1.93,3.30
58158,1.94,3.30
58158,1.94,3.30
58159,1.92,3.30
58159,1.93,3.30
58159,1.94,3.30
58160,1.94,3.30
58160,1.93,3.30
58160,1.94,3.30
58161,1.93,3.30
58161,1.93,3.30
58161,1.93,3.30
58161,1.93,3.30
58162,1.93,3.30
58162,1.93,3.30
58162,1.94,3.30
58163,1.92,3.30
58163,1.93,3.30
58163,1.93,3.30
58164,1.96,3.30
58164,1.93,3.30
58164,1.94,3.30
58164,1.93,3.30
58165,1.94,3.30
58165,1.94,3.30
58165,1.93,3.30
58166,1.93,3.30
58166,1.93,3.30
58166,1.93,3.30
58167,1.93,3.30
58167,1.93,3.30
58167,1.93,3.30
58168,1.94,3.30
58168,1.93,3.30
58168,1.93,3.30
58168,1.93,3.30
58169,1.94,3.30
58169,1.93,3.30
58169,1.93,3.30
58170,1.93,3.30
58170,1.93,3.30
58170,1.93,3.30
58171,1.93,3.30
58171,1.93,3.30
58171,1.93,3.30
58171,1.93,3.30
58172,1.94,3.30
58172,1.93,3.30
58172,1.93,3.30
58173,1.93,3.30
58173,1.93,3.30
58173,1.93,3.30
58174,1.93,3.30
58174,1.93,3.30
58174,1.93,3.30
58174,1.93,3.30
58175,1.95,3.30
58175,1.93,3.30
58177,1.93,3.30
58177,1.93,3.30
58177,1.93,3.30
58177,1.93,3.30
58177,1.93,3.30
58177,1.93,3.30
58177,1.93,3.30
58177,1.93,3.30
58178,1.93,3.30
58178,1.93,3.30
58178,1.94,3.30
58179,1.92,3.30
58179,1.93,3.30
58179,1.96,3.30
58180,1.93,3.30
58180,1.93,3.30
58180,1.93,3.30
58180,1.93,3.30
58181,1.93,3.30
58181,1.93,3.30
58181,1.93,3.30
58182,1.93,3.30
58182,1.93,3.30
58182,1.93,3.30
58183,1.93,3.30
58183,1.92,3.30
58183,1.93,3.30
58184,1.93,3.30
58184,1.93,3.30
58184,1.93,3.30
58184,1.94,3.30
58185,1.95,3.30
58185,1.93,3.30
58185,1.93,3.30
58186,1.93,3.30
58186,1.93,3.30
58186,1.93,3.30
58187,1.93,3.30
58187,1.93,3.30
58187,1.93,3.30
58187,1.94,3.30
58188,1.93,3.30
58188,1.93,3.30
58188,1.93,3.30
58189,1.93,3.30
58189,1.93,3.30
58189,1.93,3.30
58190,1.94,3.30
58190,1.94,3.30
58190,1.93,3.30
58190,1.94,3.30
58191,1.93,3.30
58191,1.93,3.30
58191,1.93,3.30
58192,1.93,3.30
58192,1.93,3.30
58192,1.93,3.30
58193,1.93,3.30
58193,1.94,3.30
58193,1.93,3.30
58193,1.93,3.30
58194,1.93,3.30
58194,1.93,3.30
58194,1.93,3.30
58195,1.92,3.30
58195,1.93,3.30
58195,1.92,3.30
58196,1.93,3.30
58196,1.94,3.30
58196,1.93,3.30
58196,1.94,3.30
58197,1.93,3.30
58197,1.93,3.30
58197,1.94,3.30
58198,1.93,3.30
58198,1.95,3.30
58198,1.94,3.30
58199,1.94,3.30
58199,1.93,3.30
58199,1.94,3.30
58200,1.93,3.30
58200,1.93,3.30
58200,1.93,3.30
58200,1.93,3.30
58201,1.93,3.30
58201,1.93,3.30
58201,1.93,3.30
58202,1.93,3.30
58202,1.94,3.30
58202,1.94,3.30
58203,1.93,3.30
58203,1.93,3.30
58203,1.94,3.30
58203,1.93,3.30
58204,1.93,3.30
58204,1.94,3.30
58204,1.94,3.30
58205,1.93,3.30
58205,1.94,3.30
58205,1.94,3.30
58206,1.93,3.30
58206,1.93,3.30
58206,1.94,3.30
58206,1.94,3.30
58207,1.93,3.30
58207,1.94,3.30
58207,1.93,3.30
58208,1.94,3.30
58208,1.93,3.30
58208,1.93,3.30
58209,1.94,3.30
58209,1.94,3.30
58209,1.93,3.30
