time_ms,ch1_v,ch2_v
136735,1.9212,2.7722
136736,1.9083,2.7625
136737,1.9139,2.7633
136738,1.9131,2.7875
136739,1.9123,2.7778
136740,1.9107,2.7722
136741,1.9188,2.7722
136742,1.9188,2.7714
136743,1.9188,2.7448
136744,1.9171,2.7133
136745,1.9163,2.6859
136746,1.9171,2.6464
136747,1.9107,2.6182
136748,1.9083,2.5884
136749,1.9083,2.5554
136750,1.9010,2.5264
136751,1.8954,2.4933
136752,1.8954,2.4611
136753,1.8873,2.4377
136754,1.8825,2.4232
136755,1.8881,2.4111
136756,1.8817,2.4127
136757,1.8809,2.4216
136758,1.8849,2.4297
136759,1.8857,2.4232
136760,1.8914,2.4136
136761,1.8809,2.3870
136762,1.8897,2.3757
136763,1.8825,2.3604
136764,1.8793,2.3394
136765,1.8752,2.3185
136766,1.8752,2.3007
136767,1.8696,2.2749
136768,1.8696,2.2580
136769,1.8648,2.2403
136770,1.8615,2.2282
136771,1.8486,2.2193
136772,1.8478,2.2492
136773,1.8551,2.2467
136774,1.8599,2.2653
136775,1.8640,2.2717
136776,1.8656,2.2693
136777,1.8704,2.2701
136778,1.8696,2.2564
136779,1.8704,2.2322
136780,1.8688,2.2218
136781,1.8543,2.2064
136782,1.8543,2.1960
136783,1.8591,2.1782
136784,1.8559,2.1613
136785,1.8511,2.1363
136786,1.8486,2.1307
136787,1.8414,2.1218
136788,1.8406,2.1259
136789,1.8390,2.1388
136790,1.8454,2.1645
136791,1.8462,2.1895
136792,1.8575,2.2000
136793,1.8599,2.1944
136794,1.8640,2.1887
136795,1.8575,2.1790
136796,1.8591,2.1662
136797,1.8559,2.1460
136798,1.8559,2.1291
136799,1.8535,2.1162
136800,1.8535,2.0977
136801,1.8495,2.0622
136802,1.8527,2.0582
136803,1.8293,2.0372
136804,1.8382,2.0308
136805,1.8390,2.0437
136806,1.8390,2.0622
136807,1.8301,2.0912
136808,1.8446,2.1146
136809,1.8559,2.1234
136810,1.8503,2.1218
136811,1.8575,2.1146
136812,1.8615,2.1105
136813,1.8559,2.0960
136814,1.8583,2.0936
136815,1.8527,2.0622
136816,1.8519,2.0525
136817,1.8462,2.0388
136818,1.8462,2.0267
136819,1.8438,2.0122
136820,1.8349,2.0010
136821,1.8333,2.0058
136822,1.8333,2.0211
136823,1.8390,2.0501
136824,1.8406,2.0799
136825,1.8543,2.1017
136826,1.8519,2.1073
136827,1.8575,2.1122
136828,1.8591,2.1017
136829,1.8527,2.0960
136830,1.8519,2.0815
136831,1.8527,2.0622
136832,1.8478,2.0501
136833,1.8478,2.0404
136834,1.8454,2.0259
136835,1.8438,2.0138
136836,1.8398,2.0034
136837,1.8398,2.0010
136838,1.8333,2.0114
136839,1.8309,2.0243
136840,1.8430,2.0590
136841,1.8438,2.0904
136842,1.8438,2.1130
136843,1.8486,2.0622
136844,1.8575,2.1065
136845,1.8551,2.0977
136846,1.8543,2.0622
136847,1.8495,2.0622
136848,1.8454,2.0622
136849,1.8422,2.0493
136850,1.8358,2.0364
136851,1.8398,2.0203
136852,1.8325,2.0106
136853,1.8333,1.9985
136854,1.8301,1.9993
136855,1.8366,2.0010
136856,1.8221,2.0421
136857,1.8301,2.0622
136858,1.8422,2.0977
136859,1.8430,2.1097
136860,1.8446,2.1049
136861,1.8454,2.1025
136862,1.8446,2.0993
136863,1.8446,2.0872
136864,1.8462,2.0622
136865,1.8414,2.0590
136866,1.8333,2.0485
136867,1.8341,2.0300
136868,1.8317,2.0227
136869,1.8333,2.0074
136870,1.8293,1.9961
136871,1.8221,1.9969
136872,1.8221,2.0195
136873,1.8285,2.0259
136874,1.8382,2.0493
136875,1.8422,2.0558
136876,1.8422,2.0606
136877,1.8414,2.0501
136878,1.8422,2.0485
136879,1.8398,2.0356
136880,1.8398,2.0445
136881,1.8301,2.0155
136882,1.8221,2.0026
136883,1.8317,1.9921
136884,1.8277,1.9816
136885,1.8229,1.9808
136886,1.8269,1.9929
136887,1.8204,2.0026
136888,1.8229,2.0292
136889,1.8229,2.0574
136890,1.8261,2.0856
136891,1.8285,2.1162
136892,1.8269,2.1436
136893,1.8293,2.1871
136894,1.8366,2.2048
136895,1.8398,2.2306
136896,1.8430,2.2580
136897,1.8583,2.2838
136898,1.8438,2.3088
136899,1.8438,2.3394
136900,1.8495,2.3894
136901,1.8535,2.3853
136902,1.8527,2.4023
136903,1.8503,2.4281
136904,1.8527,2.4385
136905,1.8583,2.4619
136906,1.8583,2.4748
136907,1.8607,2.4885
136908,1.8656,2.5054
136909,1.8672,2.5167
136910,1.8704,2.5272
136911,1.8672,2.5401
136912,1.8696,2.5505
136913,1.8720,2.5578
136914,1.8704,2.5747
136915,1.8575,2.5876
136916,1.8817,2.5973
136917,1.8785,2.6142
136918,1.8833,2.6279
136919,1.8825,2.6319
136920,1.8881,2.6424
136921,1.8865,2.6537
136922,1.8905,2.6618
136923,1.8914,2.6730
136924,1.8954,2.6787
136925,1.8938,2.6932
136926,1.8954,2.6972
136927,1.8994,2.7061
136928,1.9010,2.7190
136929,1.9002,2.7230
136930,1.8889,2.7335
136931,1.9002,2.7335
136932,1.9026,2.7480
136933,1.9042,2.7544
136934,1.9083,2.7633
136935,1.9107,2.7697
136936,1.9075,2.7762
136937,1.9131,2.7842
136938,1.9204,2.7867
136939,1.9139,2.7979
136940,1.9123,2.8052
136941,1.9099,2.8084
136942,1.9091,2.8149
136943,1.9171,2.8157
136944,1.9196,2.8221
136945,1.9107,2.8278
136946,1.9155,2.8326
136947,1.9196,2.8439
136948,1.9220,2.8423
136949,1.9212,2.8495
136950,1.9212,2.8544
136951,1.9212,2.8616
136952,1.9212,2.8729
136953,1.9204,2.8721
136954,1.9212,2.8753
136955,1.9300,2.8834
136956,1.9252,2.8850
136957,1.9268,2.8874
136958,1.9252,2.9011
136959,1.9316,2.9027
136960,1.9325,2.9108
136961,1.9333,2.9148
136962,1.9316,2.9237
136963,1.9325,2.9285
136964,1.9316,2.9301
136965,1.9357,2.9390
136966,1.9381,2.9374
136967,1.9470,2.9438
136968,1.9373,2.9486
136969,1.9437,2.9559
136970,1.9365,2.9583
136971,1.9397,2.9664
136972,1.9292,2.9688
136973,1.9381,2.9768
136974,1.9421,2.9752
136975,1.9429,2.9785
136976,1.9453,2.9785
136977,1.9421,2.9922
136978,1.9462,3.0042
136979,1.9510,3.0042
136980,1.9470,3.0083
136981,1.9381,3.0131
136982,1.9445,3.0099
136983,1.9453,3.0252
136984,1.9470,3.0260
136985,1.9445,3.0316
136986,1.9429,3.0325
136987,1.9462,3.0381
136988,1.9470,3.0389
136989,1.9494,3.0518
136990,1.9470,3.0687
136991,1.9462,3.0647
136992,1.9470,3.0663
136993,1.9470,3.0744
136994,1.9470,3.0832
136995,1.9470,3.0856
136996,1.9478,3.0953
136997,1.9518,3.1034
136998,1.9478,3.1219
136999,1.9510,3.1211
137000,1.9526,3.1316
137001,1.9510,3.1292
137002,1.9518,3.1332
137003,1.9494,3.1453
137004,1.9510,3.1509
137005,1.9510,3.1566
137006,1.9502,3.1630
137007,1.9566,3.1759
137008,1.9574,3.2323
137009,1.9518,3.1823
137010,1.9727,3.1896
137011,1.9518,3.1960
137012,1.9526,3.2122
137013,1.9526,3.2097
137014,1.9550,3.2202
137015,1.9558,3.2388
137016,1.9470,3.2379
137017,1.9558,3.2484
137018,1.9510,3.2605
137019,1.9582,3.2782
137020,1.9590,3.2645
137021,1.9582,3.2919
137022,1.9582,3.3000
137023,1.9582,3.3000
137024,1.9679,3.3000
137025,1.9599,3.3000
137026,1.9574,3.3000
137027,1.9607,3.3000
137028,1.9655,3.3000
137029,1.9679,3.3000
137030,1.9631,3.3000
137031,1.9727,3.3000
137032,1.9582,3.3000
137033,1.9655,3.3000
137034,1.9647,3.3000
137035,1.9615,3.3000
137036,1.9703,3.3000
137037,1.9671,3.3000
137038,1.9703,3.3000
137039,1.9703,3.3000
137040,1.9647,3.3000
137041,1.9655,3.3000
137042,1.9687,3.3000
137043,1.9679,3.3000
137044,1.9703,3.3000
137045,1.9719,3.3000
137046,1.9711,3.3000
137047,1.9711,3.3000
137048,1.9727,3.3000
137049,1.9727,3.3000
137050,1.9768,3.3000
137051,1.9711,3.3000
137052,1.9776,3.3000
137053,1.9840,3.3000
137054,1.9808,3.3000
137055,1.9727,3.3000
137056,1.9840,3.3000
137057,1.9784,3.3000
137058,1.9752,3.3000
137059,1.9873,3.3000
137060,1.9816,3.3000
137061,1.9848,3.3000
137062,1.9800,3.3000
137063,1.9864,3.3000
137064,1.9816,3.3000
137065,1.9961,3.3000
137066,1.9800,3.3000
137067,1.9776,3.3000
137068,1.9873,3.3000
137069,1.9832,3.3000
137070,1.9864,3.3000
137071,1.9824,3.3000
137072,1.9832,3.3000
137073,1.9873,3.3000
137074,1.9889,3.3000
137075,1.9832,3.3000
137076,1.9873,3.3000
137077,1.9945,3.3000
137078,1.9889,3.3000
137079,1.9905,3.3000
137080,1.9873,3.3000
137081,1.9929,3.3000
137082,1.9905,3.3000
137083,1.9985,3.3000
137084,1.9913,3.3000
137085,1.9945,3.3000
137086,2.0058,3.3000
137087,1.9921,3.3000
137088,1.9985,3.3000
137089,1.9961,3.3000
137090,1.9985,3.3000
137091,1.9961,3.3000
137092,1.9985,3.3000
137093,1.9993,3.3000
137094,2.0001,3.3000
137095,1.9985,3.3000
137096,2.0042,3.3000
137097,2.0018,3.3000
137098,2.0090,3.3000
137099,2.0058,3.3000
137100,2.0042,3.3000
137101,2.0106,3.3000
137102,2.0114,3.3000
137103,2.0026,3.3000
137104,2.0098,3.3000
137105,2.0114,3.3000
137106,2.0114,3.3000
137107,2.0106,3.3000
137108,2.0155,3.3000
137109,2.0122,3.3000
137110,2.0163,3.3000
137111,2.0171,3.3000
137112,2.0203,3.3000
137113,2.0203,3.3000
137114,2.0163,3.3000
137115,2.0122,3.3000
137116,2.0138,3.3000
137117,2.0163,3.3000
137118,2.0203,3.3000
137119,2.0243,3.3000
137120,2.0138,3.3000
137121,2.0243,3.3000
137122,2.0243,3.3000
137123,2.0243,3.3000
137124,2.0292,3.3000
137125,2.0284,3.3000
137126,2.0243,3.3000
137127,2.0251,3.3000
137128,2.0348,3.3000
137129,2.0324,3.3000
137130,2.0275,3.3000
137131,2.0267,3.3000
137132,2.0356,3.3000
137133,2.0324,3.3000
137134,2.0356,3.3000
137135,2.0380,3.3000
137136,2.0364,3.3000
137137,2.0380,3.3000
137138,2.0445,3.3000
137139,2.0388,3.3000
137140,2.0356,3.3000
137141,2.0396,3.3000
137142,2.0493,3.3000
137143,2.0477,3.3000
137144,2.0485,3.3000
137145,2.0509,3.3000
137146,2.0549,3.3000
137147,2.0477,3.3000
137148,2.0582,3.3000
137149,2.0549,3.3000
137150,2.0566,3.3000
137151,2.0622,3.3000
137152,2.0622,3.3000
137153,2.0614,3.3000
137154,2.0622,3.3000
137155,2.0622,3.3000
137156,2.0622,3.3000
137157,2.0622,3.3000
137158,2.0622,3.3000
137159,2.0622,3.3000
137160,2.0622,3.3000
137161,2.0622,3.3000
137162,2.0622,3.3000
137163,2.0622,3.3000
137164,2.0840,3.3000
137165,2.0815,3.3000
137166,2.0864,3.3000
137167,2.0912,3.3000
137168,2.0888,3.3000
137169,2.0888,3.3000
137170,2.0968,3.3000
137171,2.0912,3.3000
137172,2.0944,3.3000
137173,2.1041,3.3000
137174,2.1017,3.3000
137175,2.1138,3.3000
137176,2.1065,3.3000
137177,2.1073,3.3000
137178,2.1138,3.3000
137179,2.1138,3.3000
137180,2.1218,3.3000
137181,2.1275,3.3000
137182,2.1323,3.3000
137183,2.1363,3.3000
137184,2.1428,3.3000
137185,2.1533,3.3000
137186,2.1589,3.3000
137187,2.1718,3.3000
137188,2.1968,3.3000
137189,2.2048,3.3000
137190,2.2169,3.3000
137191,2.2169,3.3000
137192,2.2298,3.2533
137193,2.2201,3.1856
137194,2.2169,3.1179
137195,2.2169,3.0679
137196,2.2089,3.0171
137197,2.2040,2.9648
137198,2.1944,2.9164
137199,2.1960,2.8753
137200,2.2105,2.8455
137201,2.2048,2.8165
137202,2.2073,2.7802
137203,2.2016,2.7480
137204,2.2097,2.7206
137205,2.2064,2.6940
137206,2.2008,2.6682
137207,2.1871,2.6360
137208,2.2000,2.6174
137209,2.2073,2.5957
137210,2.2129,2.5659
137211,2.2153,2.5538
137212,2.2153,2.5360
137213,2.2121,2.5135
137214,2.2073,2.4949
137215,2.2040,2.4740
137216,2.1960,2.4547
137217,2.1960,2.4426
137218,2.2032,2.4273
137219,2.2040,2.4111
137220,2.2121,2.3999
137221,2.2073,2.3853
137222,2.2089,2.3716
137223,2.2048,2.3579
137224,2.2000,2.3523
137225,2.2000,2.3330
137226,2.2040,2.3257
137227,2.2073,2.3136
137228,2.2129,2.3040
137229,2.2169,2.2911
137230,2.2145,2.2814
137231,2.2073,2.2669
137232,2.2048,2.2621
137233,2.1944,2.2564
137234,2.1887,2.2459
137235,2.1960,2.2347
137236,2.2032,2.2290
137237,2.2105,2.2201
137238,2.2105,2.2121
137239,2.2081,2.2048
137240,2.2048,2.1960
137241,2.2064,2.1968
137242,2.1919,2.1863
137243,2.1960,2.1790
137244,2.2040,2.1710
137245,2.2105,2.1710
137246,2.2177,2.1662
137247,2.2048,2.1589
137248,2.2040,2.1557
137249,2.2048,2.1460
137250,2.1992,2.1428
137251,2.1847,2.1404
137252,2.1879,2.1315
137253,2.2056,2.1315
137254,2.2048,2.1275
137255,2.2073,2.1234
137256,2.2073,2.1138
137257,2.2064,2.1089
137258,2.2040,2.1017
137259,2.1960,2.0936
137260,2.1927,2.0832
137261,2.2040,2.0807
137262,2.2048,2.0622
137263,2.2153,2.0622
137264,2.2105,2.0606
137265,2.2105,2.0558
137266,2.2024,2.0525
137267,2.2032,2.0493
137268,2.1976,2.0477
137269,2.1879,2.0421
137270,2.2040,2.0388
137271,2.2064,2.0380
137272,2.2105,2.0356
137273,2.2137,2.0396
137274,2.2153,2.0348
137275,2.2177,2.0340
137276,2.2073,2.0558
137277,2.2073,2.0348
137278,2.1952,2.0259
137279,2.1944,2.0412
137280,2.2016,2.0284
137281,2.2073,2.0300
137282,2.2161,2.0284
137283,2.2097,2.0259
137284,2.2048,2.0243
137285,2.2032,1.9993
137286,2.2000,2.0251
137287,2.1944,2.0396
137288,2.1807,2.0348
137289,2.2032,2.0243
137290,2.2048,2.0235
137291,2.2137,2.0243
137292,2.2250,2.0138
137293,2.2234,2.0243
137294,2.2081,2.0219
137295,2.2089,2.0219
137296,2.2048,2.0203
137297,2.1992,2.0227
137298,2.2000,2.0195
137299,2.2040,2.0074
137300,2.2105,2.0187
137301,2.2153,2.0155
137302,2.2153,2.0219
137303,2.2097,2.0203
137304,2.2008,2.0187
137305,2.1992,2.0219
137306,2.1944,2.0163
137307,2.1960,2.0138
137308,2.2129,2.0155
137309,2.2153,2.0235
137310,2.2201,2.0243
137311,2.2161,2.0187
137312,2.2089,2.0155
137313,2.2064,2.0171
137314,2.1976,2.0163
137315,2.1903,2.0163
137316,2.2040,2.0501
137317,2.2073,2.0138
137318,2.2073,2.0155
137319,2.2073,2.0138
137320,2.2105,2.0138
137321,2.2105,2.0163
137322,2.2048,2.0114
137323,2.2008,2.0171
137324,2.2024,2.0163
137325,2.2048,2.0114
137326,2.2064,2.0114
137327,2.2056,2.0155
137328,2.2129,2.0130
137329,2.2056,2.0155
137330,2.2081,2.0171
137331,2.2040,2.0138
137332,2.1936,2.0114
137333,2.1895,2.0163
137334,2.1992,2.0138
137335,2.2040,2.0130
137336,2.2306,2.0171
137337,2.2105,2.0130
137338,2.2105,2.0122
137339,2.2081,2.0130
137340,2.2008,2.0138
137341,2.1992,2.0130
137342,2.2008,2.0243
137343,2.2097,2.0130
137344,2.2105,2.0122
137345,2.2137,2.0130
137346,2.2169,2.0122
137347,2.2073,2.0138
137348,2.2000,2.0074
137349,2.1968,2.0130
137350,2.1927,2.0130
137351,2.2048,2.0187
137352,2.2121,2.0155
137353,2.2137,2.0219
137354,2.2169,2.0138
137355,2.2097,2.0114
137356,2.2024,2.0130
137357,2.2008,2.0042
137358,2.2008,2.0122
137359,2.2089,2.0114
137360,2.2161,2.0082
137361,2.2153,2.0034
137362,2.2169,1.9864
137363,2.2081,2.0122
137364,2.2105,2.0203
137365,2.2048,2.0130
137366,2.2024,2.0114
137367,2.1960,2.0090
137368,2.2008,2.0138
137369,2.2048,2.0114
137370,2.2105,2.0122
137371,2.1936,2.0130
137372,2.2129,2.0122
137373,2.2081,2.0122
137374,2.2048,2.0106
137375,2.1960,2.0122
137376,2.2056,2.0130
137377,2.2016,2.0138
137378,2.2129,2.0122
137379,2.2064,2.0114
137380,2.2161,2.0114
137381,2.2056,2.0138
137382,2.2048,2.0114
137383,2.1944,2.0114
137384,2.1927,2.0155
137385,2.2040,2.0106
137386,2.2177,2.0122
137387,2.2105,2.0114
137388,2.2121,2.0130
137389,2.2064,2.0122
137390,2.2040,2.0106
137391,2.2024,1.9905
137392,2.2024,2.0138
137393,2.2048,2.0058
137394,2.2056,2.0106
137395,2.2129,2.0130
137396,2.2153,2.0122
137397,2.2137,2.0155
137398,2.2032,2.0114
137399,2.1952,2.0130
137400,2.1960,2.0122
137401,2.1911,2.0114
137402,2.1976,2.0090
137403,2.2073,2.0106
137404,2.2145,2.0122
137405,2.2064,2.0259
137406,2.2153,2.0042
137407,2.2008,2.0147
137408,2.2048,2.0114
137409,2.1968,2.0130
137410,2.2048,2.0098
137411,2.2048,2.0195
137412,2.2137,2.0114
137413,2.2048,2.0114
137414,2.2105,2.0171
137415,2.2137,2.0114
137416,2.2048,2.0106
137417,2.2008,2.0106
137418,2.2000,2.0138
137419,2.2064,2.0203
137420,2.2064,2.0114
137421,2.2105,2.0114
137422,2.2218,2.0155
137423,2.2177,1.9985
137424,2.2153,2.0082
137425,2.2056,2.0106
137426,2.2048,1.9856
137427,2.1968,2.0114
137428,2.1992,2.0130
137429,2.2048,2.0138
137430,2.2137,2.0138
137431,2.2210,2.0114
137432,2.2137,2.0122
137433,2.2129,2.0163
137434,2.2137,2.0114
137435,2.2000,2.0138
137436,2.2024,2.0138
137437,2.2008,2.0138
137438,2.2040,2.0122
137439,2.2129,2.0130
137440,2.2282,2.0147
137441,2.2177,2.0138
137442,2.2234,2.0138
137443,2.2097,2.0114
137444,2.2153,2.0114
137445,2.2048,2.0130
137446,2.1960,2.0155
137447,2.1936,2.0171
137448,2.2073,2.0130
137449,2.2105,2.0147
137450,2.2169,2.0106
137451,2.2169,2.0114
137452,2.2177,2.0122
137453,2.2064,2.0130
137454,2.2032,2.0122
137455,2.1919,2.0114
137456,2.1992,2.0138
137457,2.2000,2.0106
137458,2.2177,2.0106
137459,2.2201,2.0122
137460,2.2161,2.0138
137461,2.2153,2.0122
137462,2.2056,1.9881
137463,2.2064,2.0114
137464,2.1976,2.0155
137465,2.1992,2.0130
137466,2.1976,2.0138
137467,2.2073,2.0155
137468,2.2129,2.0106
137469,2.2105,2.0122
137470,2.2064,2.0122
137471,2.2048,2.0114
137472,2.2024,2.0316
137473,2.2008,2.0138
137474,2.2000,2.0114
137475,2.2064,2.0114
137476,2.2379,2.0138
138701,1.9188,2.3338
138702,1.9139,2.3152
138703,1.9163,2.2967
138703,1.9163,2.2967
138703,1.9163,2.2967
138703,1.9163,2.2967
138703,1.9163,2.2967
138703,1.9163,2.2967
138703,1.9163,2.2967
138703,1.9139,2.2911
138705,1.9099,2.2999
138706,1.9123,2.3209
138707,1.9115,2.3410
138708,1.9139,2.3612
138709,1.9188,2.3942
138710,1.9212,2.4136
138711,1.9212,2.4329
138712,1.9284,2.4361
138713,1.9325,2.4281
138714,1.9357,2.4152
138715,1.9381,2.3966
138716,1.9381,2.3853
138717,1.9349,2.3596
138718,1.9349,2.3410
138719,1.9308,2.3209
138720,1.9308,2.3080
138721,1.9228,2.3088
138722,1.9284,2.3160
138723,1.9252,2.3386
138724,1.9260,2.3612
138725,1.9292,2.3845
138726,1.9292,2.4119
138727,1.9284,2.4345
138728,1.9381,2.4426
138729,1.9429,2.4385
138730,1.9494,2.4289
138731,1.9518,2.4136
138732,1.9494,2.3999
138733,1.9494,2.3805
138734,1.9494,2.3596
138735,1.9453,2.3378
138736,1.9437,2.3209
138737,1.9421,2.3080
138738,1.9365,2.3136
138739,1.9413,2.3297
138740,1.9397,2.3507
138741,1.9421,2.3725
138742,1.9397,2.3999
138743,1.9413,2.4361
138744,1.9389,2.4361
138745,1.9470,2.4369
138746,1.9429,2.4281
138747,1.9453,2.4079
138748,1.9445,2.3974
138749,1.9413,2.3765
138750,1.9365,2.3588
138751,1.9333,2.3378
138752,1.9292,2.3201
138753,1.9252,2.3023
138754,1.9204,2.2935
138755,1.9212,2.3080
138756,1.9196,2.3225
138757,1.9204,2.3483
138758,1.9212,2.3716
138759,1.9188,2.3934
138760,1.9220,2.4152
138761,1.9196,2.4313
138762,1.9349,2.4240
138763,1.9413,2.4216
138764,1.9413,2.3966
138765,1.9470,2.3805
138766,1.9397,2.3612
138767,1.9381,2.3410
138768,1.9357,2.3233
138769,1.9357,2.3023
138770,1.9325,2.2862
138771,1.9316,2.2862
138772,1.9300,2.3007
138773,1.9260,2.3217
138774,1.9316,2.3507
138775,1.9300,2.3652
138776,1.9316,2.4023
138777,1.9357,2.4152
138778,1.9341,2.4127
138779,1.9365,2.4119
138780,1.9445,2.3974
138781,1.9341,2.3845
138782,1.9316,2.3668
138783,1.9284,2.3467
138784,1.9252,2.3265
138785,1.9212,2.3072
138786,1.9115,2.2983
138787,1.9131,2.2798
138788,1.9099,2.2822
138789,1.9091,2.2967
138790,1.9010,2.3168
138791,1.9091,2.3370
138792,1.9099,2.3716
138793,1.9115,2.3910
138794,1.9091,2.4103
138795,1.9155,2.4079
138796,1.9155,2.3878
138797,1.9123,2.3853
138798,1.9123,2.3628
138799,1.9075,2.3507
138800,1.9042,2.3265
138801,1.9034,2.3040
138802,1.8954,2.2895
138803,1.8954,2.2733
138804,1.8954,2.2669
138805,1.8938,2.2733
138806,1.8881,2.2943
138807,1.8914,2.3177
138808,1.8938,2.3386
138809,1.8946,2.3692
138810,1.8881,2.3870
138811,1.8970,2.3982
138812,1.9091,2.3902
138813,1.9139,2.3853
138814,1.9204,2.3475
138815,1.9188,2.3539
138816,1.9163,2.3338
138817,1.9196,2.3185
138818,1.9155,2.2991
138819,1.9091,2.2782
138820,1.9083,2.2612
138821,1.9051,2.2645
138822,1.9067,2.2798
138823,1.9091,2.3072
138824,1.8994,2.3249
138825,1.9091,2.3483
138826,1.9139,2.3749
138827,1.9300,2.3934
138828,1.9163,2.4007
138829,1.9204,2.3870
138830,1.9139,2.3821
138831,1.9107,2.3652
138832,1.9099,2.3539
138833,1.9042,2.3249
138834,1.9083,2.3088
138835,1.8970,2.2943
138836,1.8954,2.2733
138837,1.8954,2.2621
138838,1.8930,2.2685
138839,1.8897,2.2862
138840,1.8946,2.3080
138841,1.8930,2.3338
138842,1.8954,2.3604
138843,1.9002,2.3862
138844,1.8970,2.3982
138845,1.8954,2.3974
138846,1.8954,2.3886
138847,1.8970,2.3781
138848,1.8978,2.3596
138849,1.8954,2.3386
138850,1.8833,2.3201
138851,1.8873,2.3064
138852,1.8865,2.2967
138853,1.8825,2.2685
138854,1.8833,2.2709
138855,1.8736,2.2830
138856,1.8768,2.3152
138857,1.8752,2.3257
138858,1.8672,2.3475
138859,1.8785,2.3765
138860,1.8785,2.4007
138861,1.8849,2.4192
138862,1.8930,2.4216
138863,1.8962,2.4168
138864,1.8970,2.4071
138865,1.9002,2.3926
138866,1.8962,2.3684
138867,1.9099,2.3523
138868,1.8970,2.3322
138869,1.8930,2.3096
138870,1.8930,2.2935
138871,1.8922,2.3120
138872,1.8914,2.3201
138873,1.8881,2.3338
138874,1.8905,2.3579
138875,1.8938,2.3878
138876,1.8938,2.4111
138877,1.8954,2.4353
138878,1.8994,2.4458
138879,1.9067,2.4321
138880,1.9051,2.4345
138881,1.9139,2.4192
138882,1.9188,2.4023
138883,1.9115,2.3797
138884,1.9131,2.3588
138885,1.9075,2.3386
138886,1.9067,2.3160
138887,1.9010,2.3168
138888,1.8978,2.3193
138889,1.9042,2.3354
138890,1.8970,2.3604
138891,1.9026,2.3829
138892,1.9059,2.4071
138893,1.8978,2.4313
138894,1.8946,2.4426
138895,1.9042,2.4506
138896,1.9083,2.4273
138897,1.9083,2.4144
138898,1.9010,2.3982
138899,1.9010,2.3773
138900,1.8962,2.3555
138901,1.8930,2.3330
138902,1.8897,2.3128
138903,1.8849,2.2975
138904,1.8833,2.2975
138905,1.8825,2.3080
138906,1.8777,2.3257
138907,1.8793,2.3507
138908,1.8785,2.3733
138909,1.8833,2.3942
138910,1.8833,2.4208
138911,1.8833,2.4289
138912,1.8930,2.4232
138913,1.8865,2.4087
138914,1.8833,2.3958
138915,1.8809,2.3781
138916,1.8817,2.3579
138917,1.8817,2.3362
138918,1.8752,2.3104
138919,1.8680,2.2975
138920,1.8696,2.2846
138921,1.8672,2.2870
138922,1.8664,2.3032
138923,1.8664,2.3209
138924,1.8599,2.3467
138925,1.8688,2.3716
138926,1.8696,2.3910
138927,1.8696,2.4119
138928,1.8696,2.4144
138929,1.8720,2.4111
138930,1.8720,2.3958
138931,1.8704,2.3733
138932,1.8688,2.3571
138933,1.8688,2.3354
138934,1.8615,2.3152
138935,1.8640,2.2967
138936,1.8567,2.2782
138937,1.8519,2.2677
138938,1.8527,2.2774
138939,1.8495,2.2870
138940,1.8495,2.3120
138941,1.8430,2.3338
138942,1.8559,2.3596
138943,1.8575,2.3853
138944,1.8567,2.3966
138945,1.8454,2.3990
138946,1.8575,2.3853
138947,1.8583,2.3749
138948,1.8583,2.3547
138949,1.8567,2.3370
138950,1.8519,2.3209
138951,1.8486,2.2959
138952,1.8478,2.2749
138953,1.8438,2.2604
138954,1.8430,2.2556
138955,1.8422,2.2685
138956,1.8422,2.2830
138957,1.8430,2.3128
138958,1.8462,2.3338
138959,1.8438,2.3588
138960,1.8454,2.3805
138961,1.8486,2.3878
138962,1.8551,2.3845
138963,1.8519,2.3716
138964,1.8438,2.3571
138965,1.8495,2.3451
138966,1.8438,2.3201
138967,1.8438,2.3209
138968,1.8414,2.2798
138969,1.8349,2.2580
138970,1.8317,2.2459
138971,1.8293,2.2475
138972,1.8349,2.2508
138973,1.8366,2.2830
138974,1.8341,2.3080
138975,1.8390,2.3338
138976,1.8366,2.3571
138977,1.8398,2.3765
138978,1.8430,2.3837
138979,1.8438,2.3749
138980,1.8438,2.3596
138981,1.8414,2.3418
138982,1.8422,2.3233
138983,1.8366,2.3080
138984,1.8366,2.2814
138985,1.8349,2.2612
138986,1.8253,2.2419
138987,1.8269,2.2322
138988,1.8261,2.2435
138989,1.8229,2.2580
138990,1.8277,2.2806
138991,1.8301,2.3080
138992,1.8293,2.3322
138993,1.8293,2.3596
138994,1.8382,2.3708
138995,1.8382,2.3676
138996,1.8358,2.3596
138997,1.8414,2.3418
138998,1.8366,2.3281
138999,1.8358,2.3080
139000,1.8358,2.2903
139001,1.8317,2.2733
139002,1.8285,2.2451
139003,1.8253,2.2306
139004,1.8285,2.2282
139005,1.8188,2.2492
139006,1.8237,2.2564
139007,1.8269,2.2822
139008,1.8261,2.3072
139009,1.8204,2.3338
139010,1.8301,2.3547
139011,1.8519,2.3636
139012,1.8317,2.3588
139013,1.8390,2.3459
139014,1.8398,2.3330
139015,1.8317,2.3080
139016,1.8317,2.2919
139017,1.8317,2.2725
139018,1.8237,2.2540
139019,1.8261,2.2322
139020,1.8180,2.2193
139021,1.8221,2.2266
139022,1.8204,2.2355
139023,1.8188,2.2588
139024,1.8196,2.2830
139025,1.8196,2.3088
139026,1.8261,2.3346
139027,1.8269,2.3596
139028,1.8317,2.3596
139029,1.8333,2.3483
139030,1.8237,2.3362
139031,1.8349,2.3233
139032,1.8341,2.3048
139033,1.8285,2.2870
139034,1.8293,2.2604
139035,1.8221,2.2451
139036,1.8212,2.2266
139037,1.8196,2.2177
139038,1.8156,2.2282
139039,1.8204,2.2411
139040,1.8188,2.2685
139041,1.8204,2.2903
139042,1.8188,2.3080
139043,1.8221,2.3483
139044,1.8301,2.3571
139045,1.8293,2.3547
139046,1.8301,2.3636
139047,1.8438,2.3322
139048,1.8301,2.3120
139049,1.8253,2.3040
139050,1.8261,2.2741
139051,1.8261,2.2685
139052,1.8172,2.2395
139053,1.8188,2.2153
139054,1.8188,2.2177
139055,1.8188,2.2290
139056,1.8188,2.2443
139057,1.8180,2.2701
139058,1.8180,2.2967
139059,1.8204,2.3217
139060,1.8269,2.3475
139061,1.8277,2.3515
139062,1.8293,2.3499
139063,1.8366,2.3338
139064,1.8293,2.3233
139065,1.8285,2.3056
139066,1.8269,2.2870
139067,1.8237,2.2621
139068,1.8229,2.2443
139069,1.8261,2.2258
139070,1.8180,2.2073
139071,1.8132,2.2161
139072,1.8164,2.2306
139073,1.8172,2.2508
139074,1.8180,2.2774
139075,1.8196,2.2975
139076,1.8221,2.3322
139077,1.8229,2.3451
139078,1.8301,2.3475
139079,1.8317,2.3418
139080,1.8293,2.3265
139081,1.8317,2.3136
139082,1.8285,2.3064
139083,1.8285,2.2717
139084,1.8269,2.2564
139085,1.8180,2.2306
139086,1.8180,2.2153
139087,1.8180,2.2048
139088,1.8156,2.2145
139089,1.8180,2.2306
139090,1.8188,2.2532
139091,1.8212,2.2822
139092,1.8180,2.3072
139093,1.8229,2.3297
139094,1.8293,2.3426
139095,1.8325,2.3426
139096,1.8325,2.3330
139097,1.8285,2.3193
139098,1.8196,2.3007
139099,1.8269,2.2830
139100,1.8285,2.2604
139101,1.8253,2.2411
139102,1.8204,2.2250
139103,1.8172,2.2073
139104,1.8180,2.2008
139105,1.8172,2.2089
139106,1.8196,2.2330
139107,1.8188,2.2500
139108,1.8229,2.2814
139109,1.8212,2.3072
139110,1.8293,2.3305
139111,1.8309,2.3378
139112,1.8325,2.3338
139113,1.8333,2.3201
139114,1.8349,2.3080
139115,1.8358,2.2911
139116,1.8325,2.2701
139117,1.8229,2.2556
139118,1.8285,2.2322
139119,1.8253,2.2097
139120,1.8196,2.1992
139121,1.8204,2.1960
139122,1.8180,2.2089
139123,1.8172,2.2347
139124,1.8229,2.2580
139125,1.8269,2.2822
139126,1.8301,2.3080
139127,1.8269,2.3257
139128,1.8358,2.3338
139129,1.8406,2.3217
139130,1.8406,2.3104
139131,1.8390,2.2959
139132,1.8414,2.2814
139133,1.8366,2.2580
139134,1.8325,2.2419
139135,1.8333,2.2177
139136,1.8293,2.1936
139137,1.8253,2.1960
139138,1.8261,2.2073
139139,1.8285,2.2153
139140,1.8229,2.2306
139141,1.8285,2.2572
139142,1.8301,2.2838
139143,1.8301,2.3128
139144,1.8430,2.3289
139145,1.8398,2.3241
139146,1.8446,2.3152
139147,1.8430,2.3040
139148,1.8430,2.2878
139149,1.8398,2.2685
139150,1.8438,2.2540
139151,1.8333,2.2306
139152,1.8309,2.2137
139153,1.8285,2.2258
139154,1.8285,2.1847
139155,1.8261,2.2048
139156,1.8309,2.2201
139157,1.8237,2.2435
139158,1.8358,2.2685
139159,1.8382,2.2935
139160,1.8406,2.3201
139161,1.8438,2.3233
139162,1.8470,2.3209
139163,1.8478,2.3112
139164,1.8495,2.3056
139165,1.8438,2.2798
139166,1.8438,2.2612
139167,1.8438,2.2427
139168,1.8390,2.2266
139169,1.8333,2.2048
139170,1.8349,2.1936
139171,1.8301,2.1944
139172,1.8301,2.2105
139173,1.8309,2.2258
139174,1.8358,2.2564
139175,1.8366,2.2806
139176,1.8390,2.3015
139177,1.8446,2.3217
139178,1.8438,2.3281
139179,1.8462,2.3177
139180,1.8478,2.3040
139181,1.8446,2.2862
139182,1.8454,2.2725
139183,1.8446,2.2556
139184,1.8414,2.2379
139185,1.8398,2.2193
139186,1.8382,2.2024
139187,1.8333,2.1871
139188,1.8358,2.1968
139189,1.8309,2.2081
139190,1.8358,2.2330
139191,1.8366,2.2564
139192,1.8398,2.2798
139193,1.8438,2.3088
139194,1.8462,2.3209
139195,1.8559,2.3168
139196,1.8535,2.3072
139197,1.8535,2.2959
139198,1.8559,2.2822
139199,1.8543,2.2612
139200,1.8511,2.2524
139201,1.8462,2.2475
139202,1.8438,2.2137
139203,1.8446,2.1903
139204,1.8414,2.1831
139205,1.8438,2.1911
139206,1.8430,2.2089
139207,1.8438,2.2322
139208,1.8486,2.2564
139209,1.8462,2.2822
139210,1.8543,2.2967
139211,1.8615,2.2991
139212,1.8632,2.2878
139213,1.8607,2.2814
139214,1.8640,2.2645
139215,1.8583,2.2451
139216,1.8607,2.2282
139217,1.8583,2.2121
139218,1.8672,2.1960
139219,1.8559,2.1790
139220,1.8462,2.1533
139221,1.8559,2.1525
139222,1.8438,2.1613
139223,1.8454,2.1782
139224,1.8495,2.2040
139225,1.8543,2.2266
139226,1.8591,2.2508
139227,1.8615,2.2556
139228,1.8623,2.2540
139229,1.8648,2.2363
139230,1.8648,2.2193
139231,1.8656,2.2073
139232,1.8777,2.1871
139233,1.8503,2.1702
139234,1.8559,2.1533
139235,1.8495,2.1396
139236,1.8551,2.1154
139237,1.8495,2.1097
139238,1.8446,2.1025
139239,1.8438,2.1275
139240,1.8527,2.1420
139241,1.8478,2.1702
139242,1.8495,2.1952
139243,1.8567,2.2032
139244,1.8527,2.2024
139245,1.8527,2.1944
139246,1.8495,2.1799
139247,1.8527,2.1645
139248,1.8519,2.1533
139249,1.8495,2.1404
139250,1.8438,2.1194
139251,1.8462,2.1017
139252,1.8349,2.0880
139253,1.8317,2.0558
139254,1.8317,2.0622
139255,1.8325,2.0848
139256,1.8309,2.1033
139257,1.8333,2.1355
139258,1.8333,2.1589
139259,1.8414,2.1766
139260,1.8382,2.1774
139261,1.8438,2.1790
139262,1.8430,2.1718
139263,1.8486,2.1573
139264,1.8349,2.1444
139265,1.8349,2.1283
139266,1.8366,2.1146
139267,1.8237,2.1001
139268,1.8301,2.0896
139269,1.8261,2.0622
139270,1.8204,2.0501
139271,1.8180,2.0558
139272,1.8180,2.0622
139273,1.8156,2.1041
139274,1.8156,2.1315
139275,1.8358,2.1557
139276,1.8229,2.1637
139277,1.8333,2.1742
139278,1.8261,2.1653
139279,1.8301,2.1549
139280,1.8285,2.1339
139281,1.8293,2.1251
139282,1.8229,2.1097
139283,1.8204,2.1009
139284,1.8180,2.0622
139285,1.8172,2.0614
139286,1.8196,2.0421
139287,1.8180,2.0356
139288,1.8140,2.0558
139289,1.8092,2.0622
139290,1.8140,2.1049
139291,1.8180,2.1404
139292,1.8172,2.1573
139293,1.8285,2.1686
139294,1.8204,2.1621
139295,1.8196,2.1670
139296,1.8229,2.1484
139297,1.8204,2.1299
139298,1.8188,2.1218
139299,1.8140,2.1033
139300,1.8132,2.0622
139301,1.8092,2.0622
139302,1.8075,2.0509
139303,1.8075,2.0388
139304,1.8067,2.0509
139305,1.8051,2.0622
139306,1.7810,2.0864
139307,1.8003,2.1162
139308,1.8124,2.1444
139309,1.8180,2.1637
139310,1.8124,2.1670
139311,1.8148,2.1621
139312,1.8180,2.1533
139313,1.8180,2.1412
139314,1.8140,2.1218
139315,1.8140,2.1130
139316,1.8108,2.0977
139317,1.8059,2.0622
139318,1.8237,2.0622
139319,1.7995,2.0461
139320,1.8092,2.0380
139321,1.7971,2.0485
139322,1.8019,2.0622
139323,1.7987,2.0993
139324,1.8011,2.1275
139325,1.8124,2.1525
139326,1.8084,2.1637
139327,1.8108,2.1653
139328,1.8043,2.1581
139329,1.8180,2.1492
139330,1.8156,2.1283
139331,1.8067,2.1154
139332,1.7938,2.1033
139333,1.8164,2.0896
139334,1.8035,2.0622
139335,1.7979,2.0501
139336,1.7971,2.0348
139337,1.7922,2.0388
139338,1.7938,2.0541
139339,1.7930,2.0622
139340,1.7963,2.1097
139341,1.8003,2.1379
139342,1.8019,2.1573
139343,1.8051,2.1525
139344,1.8059,2.1653
139345,1.8092,2.1533
139346,1.8003,2.1412
139347,1.8059,2.1275
139348,1.8059,2.1226
139349,1.8035,2.1017
139350,1.8003,2.0856
139351,1.7963,2.0622
139352,1.7713,2.0477
139353,1.7955,2.0380
139354,1.7922,2.0453
139355,1.7914,2.0590
139356,1.7906,2.0896
139357,1.7922,2.1154
139358,1.7938,2.1484
139359,1.8043,2.1702
139360,1.8035,2.1653
139361,1.8011,2.1573
139362,1.8172,2.1492
139363,1.8035,2.1525
139364,1.8084,2.1194
139365,1.7995,2.1017
139366,1.8019,2.0936
139367,1.8011,2.0622
139368,1.7979,2.0574
139369,1.7930,2.0421
139370,1.7906,2.0493
139371,1.7882,2.0485
139372,1.7882,2.0622
139373,1.7914,2.1001
139374,1.7922,2.1283
139375,1.7971,2.1533
139376,1.7842,2.1645
139377,1.8051,2.1613
139378,1.8003,2.1831
139379,1.8027,2.1444
139380,1.8003,2.1283
139381,1.7955,2.1154
139382,1.7971,2.1033
139383,1.7922,2.0525
139384,1.7971,2.0622
139385,1.7826,2.0469
139386,1.7922,2.0380
139387,1.7898,2.0429
139388,1.7818,2.0541
139389,1.7914,2.0622
139390,1.7914,2.1170
139391,1.7922,2.1525
139392,1.8019,2.1742
139393,1.7963,2.1831
139394,1.7995,2.1863
139395,1.8027,2.1790
139396,1.8027,2.1702
139397,1.8019,2.1549
139398,1.8051,2.1371
139399,1.8011,2.1202
139400,1.7971,2.1073
139401,1.7898,2.0896
139402,1.7914,2.0622
139403,1.7898,2.0622
139404,1.7898,2.0622
139405,1.7930,2.1017
139406,1.7793,2.1291
139407,1.7971,2.1637
139408,1.7930,2.1903
139409,1.8043,2.2201
139410,1.7874,2.2185
139411,1.8043,2.2201
139412,1.8100,2.2073
139413,1.8059,2.1944
139414,1.8051,2.1911
139415,1.8043,2.2024
139416,1.8092,2.2105
139417,1.8132,2.2427
139418,1.8156,2.2717
139419,1.8180,2.3023
139420,1.8180,2.3249
139421,1.8140,2.3459
139422,1.8180,2.3652
139423,1.8140,2.3837
139424,1.8293,2.4007
139425,1.8237,2.4119
139426,1.8277,2.4216
139427,1.8358,2.4393
139428,1.8229,2.4506
139429,1.8366,2.4635
139430,1.8390,2.4869
139431,1.8430,2.4933
139432,1.8406,2.5030
139433,1.8398,2.5199
139434,1.8446,2.5312
139435,1.8438,2.5377
139436,1.8438,2.5505
139437,1.8438,2.5626
139438,1.8478,2.5739
139439,1.8478,2.5731
139440,1.8527,2.5916
139441,1.8454,2.5965
139442,1.8430,2.6102
139443,1.8535,2.6174
139444,1.8454,2.6166
139445,1.8527,2.6327
139446,1.8551,2.6376
139447,1.8511,2.6473
139448,1.8551,2.6553
139449,1.8438,2.6618
139450,1.8519,2.6690
139451,1.8495,2.6747
139452,1.8567,2.7085
139453,1.8623,2.6827
139454,1.8591,2.6964
139455,1.8535,2.6988
139456,1.8551,2.7029
139457,1.8495,2.7109
139458,1.8591,2.6569
139459,1.8680,2.7206
139460,1.8575,2.7278
139461,1.8495,2.7319
139462,1.8615,2.7359
139463,1.8583,2.7440
139464,1.8607,2.7464
139465,1.8591,2.7512
139466,1.8623,2.7544
139467,1.8583,2.7585
139468,1.8607,2.7714
139469,1.8567,2.7705
139470,1.8615,2.7649
139471,1.8607,2.7834
139472,1.8575,2.7794
139473,1.8640,2.7875
139474,1.8640,2.7859
139475,1.8623,2.7907
139476,1.8583,2.7939
139477,1.8615,2.7988
139478,1.8615,2.8004
139479,1.8527,2.8036
139480,1.8640,2.8092
139481,1.8865,2.8116
139482,1.8632,2.8149
139483,1.8583,2.8125
139484,1.8607,2.8189
139485,1.8623,2.8213
139486,1.8623,2.8237
139487,1.8575,2.8278
139488,1.8623,2.8310
139489,1.8567,2.8326
139490,1.8623,2.8318
139491,1.8591,2.8374
139492,1.8551,2.8471
139493,1.8640,2.8495
139494,1.8615,2.8495
139495,1.8607,2.8495
139496,1.8640,2.8495
139497,1.8591,2.8237
139498,1.8648,2.8495
139499,1.8607,2.8608
139500,1.8656,2.8632
139501,1.8623,2.8705
139502,1.8615,2.8713
139503,1.8615,2.8745
139504,1.8640,2.8793
139505,1.8640,2.8753
139506,1.8680,2.8858
139507,1.8615,2.8874
139508,1.8656,2.8874
139509,1.8623,2.9011
139510,1.8672,2.9027
139511,1.8672,2.9156
139512,1.8559,2.9132
139513,1.8640,2.9358
139514,1.8591,2.9237
139515,1.8656,2.9269
139516,1.8640,2.9325
139517,1.8672,2.9390
139518,1.8615,2.9486
139519,1.8640,2.9543
139520,1.8656,2.9599
139521,1.8672,2.9704
139522,1.8615,2.9809
139523,1.8672,2.9930
139524,1.8656,3.0067
139525,1.8688,3.0059
139526,1.8648,3.0300
139527,1.8648,3.0325
139528,1.8640,3.0534
139529,1.8640,3.0607
139530,1.8696,3.0744
139531,1.8680,3.0848
139532,1.8680,3.1034
139533,1.8696,3.1147
139534,1.8688,3.1775
139535,1.8664,3.1711
139536,1.8712,3.2033
139537,1.8785,3.1590
139538,1.8640,3.1920
139539,1.8680,3.2049
139540,1.8680,3.2178
139541,1.8680,3.2162
139542,1.8720,3.2452
139543,1.8696,3.2541
139544,1.8648,3.2645
139545,1.8712,3.2839
139546,1.8680,3.2936
139547,1.8696,3.3000
139548,1.8696,3.3000
139549,1.8817,3.3000
139550,1.8736,3.3000
139551,1.8728,3.3000
139552,1.8768,3.3000
139553,1.8752,3.3000
139554,1.8777,3.3000
139555,1.8768,3.3000
139556,1.8752,3.3000
139557,1.8720,3.3000
139558,1.8801,3.3000
139559,1.8728,3.3000
139560,1.8736,3.3000
139561,1.8841,3.3000
139562,1.8752,3.3000
139563,1.8809,3.3000
139564,1.8914,3.3000
139565,1.8954,3.3000
139566,1.8825,3.3000
139567,1.8809,3.3000
139568,1.8760,3.3000
139569,1.8825,3.3000
139570,1.8777,3.3000
139571,1.8768,3.3000
139572,1.8881,3.3000
139573,1.8809,3.3000
139574,1.8841,3.3000
139575,1.8833,3.3000
139576,1.8841,3.3000
139577,1.8809,3.3000
139578,1.8914,3.3000
139579,1.8841,3.3000
139580,1.8865,3.3000
139581,1.8849,3.3000
139582,1.8962,3.3000
139583,1.8881,3.3000
139584,1.8873,3.3000
139585,1.8881,3.3000
139586,1.8841,3.3000
139587,1.8881,3.3000
139588,1.8922,3.3000
139589,1.8946,3.3000
139590,1.8865,3.3000
139591,1.8865,3.3000
139592,1.8954,3.3000
139593,1.8946,3.3000
139594,1.8801,3.3000
139595,1.8696,3.3000
139596,1.8873,3.3000
139597,1.8954,3.3000
139598,1.8954,3.3000
139599,1.9042,3.3000
139600,1.8930,3.3000
139601,1.8954,3.3000
139602,1.8954,3.3000
139603,1.9010,3.3000
139604,1.8946,3.3000
139605,1.8946,3.3000
139606,1.8962,3.3000
139607,1.8930,3.3000
139608,1.8954,3.3000
139609,1.9034,3.3000
139610,1.8978,3.3000
139611,1.8970,3.3000
139612,1.8970,3.3000
139613,1.9034,3.3000
139614,1.9010,3.3000
139615,1.8994,3.3000
139616,1.8994,3.3000
139617,1.8954,3.3000
139618,1.8962,3.3000
139619,1.8978,3.3000
139620,1.8978,3.3000
139621,1.9042,3.3000
139622,1.9010,3.3000
139623,1.9010,3.3000
139624,1.9083,3.3000
139625,1.9059,3.3000
139626,1.9059,3.3000
139627,1.9123,3.3000
139628,1.9059,3.3000
139629,1.8978,3.3000
139630,1.9042,3.3000
139631,1.9026,3.3000
139632,1.9034,3.3000
139633,1.9099,3.3000
139634,1.9091,3.3000
139635,1.9131,3.3000
139636,1.9123,3.3000
139637,1.9042,3.3000
139638,1.9067,3.3000
139639,1.9099,3.3000
139640,1.9083,3.3000
139641,1.9091,3.3000
139642,1.9091,3.3000
139643,1.9115,3.3000
139644,1.9042,3.3000
139645,1.9123,3.3000
139646,1.9163,3.3000
139647,1.9083,3.3000
139648,1.9171,3.3000
139649,1.9163,3.3000
139650,1.9107,3.3000
139651,1.9139,3.3000
139652,1.9131,3.3000
139653,1.9091,3.3000
139654,1.9139,3.3000
139655,1.9155,3.3000
139656,1.9196,3.3000
139657,1.9139,3.3000
139658,1.9163,3.3000
139659,1.9204,3.3000
139660,1.9179,3.3000
139661,1.9188,3.3000
139662,1.9155,3.3000
139663,1.9171,3.3000
139664,1.9123,3.3000
139665,1.9212,3.3000
139666,1.9171,3.3000
139667,1.9155,3.3000
139668,1.9171,3.3000
139669,1.9220,3.3000
139670,1.9188,3.3000
139671,1.9292,3.3000
139672,1.9155,3.3000
139673,1.9204,3.3000
139674,1.9228,3.3000
139675,1.9204,3.3000
139676,1.9260,3.3000
139677,1.9171,3.3000
139678,1.9188,3.3000
139679,1.9236,3.3000
139680,1.9244,3.3000
139681,1.9212,3.3000
139682,1.9268,3.3000
139683,1.9212,3.3000
139684,1.9260,3.3000
139685,1.9236,3.3000
139686,1.9220,3.3000
139687,1.9236,3.3000
139688,1.9212,3.3000
139689,1.9236,3.3000
139690,1.9220,3.3000
139691,1.9252,3.3000
139692,1.9308,3.3000
139693,1.9236,3.3000
139694,1.9244,3.3000
139695,1.9300,3.3000
139696,1.9300,3.3000
139697,1.9284,3.3000
139698,1.9349,3.3000
139699,1.9260,3.3000
139700,1.9284,3.3000
139701,1.9260,3.3000
139702,1.9284,3.3000
139703,1.9252,3.3000
139704,1.9381,3.3000
139705,1.9292,3.3000
139706,1.9300,3.3000
139707,1.9300,3.3000
139708,1.9316,3.3000
139709,1.9349,3.3000
139710,1.9349,3.3000
139711,1.9308,3.3000
139712,1.9325,3.3000
139713,1.9333,3.3000
139714,1.9333,3.3000
139715,1.9397,3.3000
139716,1.9365,3.3000
139717,1.9316,3.3000
139718,1.9365,3.3000
139719,1.9365,3.3000
139720,1.9397,3.3000
139721,1.9220,3.3000
139722,1.9429,3.3000
139723,1.9357,3.3000
139724,1.9397,3.3000
139725,1.9381,3.3000
139726,1.9389,3.3000
139727,1.9373,3.3000
139728,1.9373,3.3000
139729,1.9429,3.3000
139730,1.9389,3.3000
139731,1.9365,3.3000
139732,1.9365,3.3000
139733,1.9445,3.3000
139734,1.9470,3.3000
139735,1.9300,3.3000
139736,1.9413,3.3000
139737,1.9397,3.3000
139738,1.9429,3.3000
139739,1.9397,3.3000
139740,1.9445,3.3000
139741,1.9413,3.3000
139742,1.9397,3.3000
139743,1.9429,3.3000
139744,1.9445,3.3000
139745,1.9453,3.3000
139746,1.9478,3.3000
139747,1.9542,3.3000
139748,1.9502,3.3000
139749,1.9470,3.3000
139750,1.9470,3.3000
139751,1.9445,3.3000
139752,1.9550,3.3000
139753,1.9486,3.3000
139754,1.9462,3.3000
139755,1.9462,3.3000
139756,1.9462,3.3000
139757,1.9470,3.3000
139758,1.9470,3.3000
139759,1.9228,3.3000
139760,1.9478,3.3000
139761,1.9703,3.3000
139762,1.9453,3.3000
139763,1.9470,3.3000
139764,1.9445,3.3000
139765,1.9478,3.3000
139766,1.9470,3.3000
139767,1.9494,3.3000
139768,1.9510,3.2799
139769,1.9429,3.2678
139770,1.9453,3.2581
139771,1.9526,3.2452
139772,1.9470,3.2508
139773,1.9470,3.2573
139774,1.9462,3.2621
139775,1.9494,3.2581
139776,1.9510,3.2637
139777,1.9486,3.2774
139778,1.9421,3.2871
139779,1.9470,3.2879
139780,1.9470,3.2887
139781,1.9470,3.3000
139782,1.9453,3.3000
139783,1.9550,3.3000
139784,1.9470,3.3000
139785,1.9558,3.3000
139786,1.9437,3.3000
139787,1.9486,3.3000
139788,1.9510,3.3000
139789,1.9550,3.3000
139790,1.9478,3.3000
139791,1.9494,3.3000
139792,1.9494,3.3000
139793,1.9510,3.3000
139794,1.9470,3.3000
139795,1.9486,3.3000
139796,1.9510,3.3000
139797,1.9542,3.3000
139798,1.9445,3.3000
139799,1.9462,3.3000
139800,1.9470,3.3000
139801,1.9518,3.3000
139802,1.9470,3.3000
139803,1.9510,3.3000
139804,1.9494,3.3000
139805,1.9526,3.3000
139806,1.9470,3.3000
139807,1.9526,3.3000
139808,1.9453,3.3000
139809,1.9470,3.3000
139810,1.9462,3.3000
139811,1.9526,3.3000
139812,1.9470,3.3000
139813,1.9518,3.3000
139814,1.9470,3.3000
139815,1.9470,3.3000
139816,1.9494,3.3000
139817,1.9494,3.3000
139818,1.9445,3.3000
139819,1.9526,3.3000
139820,1.9526,3.3000
139821,1.9494,3.3000
139822,1.9607,3.3000
139823,1.9453,3.3000
139824,1.9526,3.3000
139825,1.9462,3.3000
139826,1.9413,3.3000
139827,1.9486,3.3000
139828,1.9445,3.3000
139829,1.9470,3.3000
139830,1.9590,3.3000
139831,1.9470,3.3000
139832,1.9478,3.3000
139833,1.9478,3.3000
139834,1.9470,3.3000
139835,1.9470,3.3000
139836,1.9687,3.3000
139837,1.9470,3.3000
139838,1.9445,3.3000
139839,1.9365,3.3000
139840,1.9462,3.3000
139841,1.9397,3.3000
139842,1.9429,3.3000
139843,1.9445,3.3000
139844,1.9470,3.3000
139845,1.9365,3.3000
139846,1.9453,3.3000
139847,1.9421,3.3000
139848,1.9445,3.3000
139849,1.9445,3.3000
139850,1.9365,3.3000
139851,1.9429,3.3000
139852,1.9244,3.3000
139853,1.9397,3.3000
139854,1.9365,3.3000
139855,1.9341,3.3000
139856,1.9413,3.3000
139857,1.9349,3.3000
139858,1.9381,3.3000
139859,1.9429,3.3000
139860,1.9486,3.3000
139861,1.9421,3.3000
139862,1.9397,3.3000
139863,1.9325,3.2879
139864,1.9349,3.2710
139865,1.9284,3.3000
139866,1.9349,3.2605
139867,1.9365,3.2927
139868,1.9333,3.2919
139869,1.9341,3.3000
139870,1.9316,3.2774
139871,1.9333,3.2879
139872,1.9365,3.2879
139873,1.9341,3.2863
139874,1.9325,3.2911
139875,1.9389,3.2887
139876,1.9325,3.2782
139877,1.9397,3.2895
139878,1.9316,3.2919
139879,1.9300,3.2903
139880,1.9204,3.2895
139881,1.9300,3.2927
139882,1.9316,3.3000
139883,1.9333,3.3000
139884,1.9292,3.2952
139885,1.9308,3.2976
139886,1.9349,3.2984
139887,1.9268,3.3000
139888,1.9212,3.3000
139889,1.9284,3.3000
139890,1.9260,3.3000
139891,1.9236,3.3000
139892,1.9300,3.3000
139893,1.9284,3.3000
139894,1.9292,3.3000
139895,1.9252,3.3000
139896,1.9228,3.3000
139897,1.9220,3.3000
139898,1.9252,3.3000
139899,1.9333,3.3000
139900,1.9316,3.3000
139901,1.9212,3.3000
139902,1.9220,3.3000
139903,1.9228,3.3000
139904,1.9260,3.3000
139905,1.9212,3.3000
139906,1.9292,3.3000
139907,1.9236,3.3000
139908,1.9212,3.3000
139909,1.9212,3.3000
139910,1.9179,3.3000
139911,1.9212,3.3000
139912,1.9268,3.3000
139913,1.9204,3.3000
139914,1.9212,3.3000
139915,1.9236,3.3000
139916,1.9188,3.3000
139917,1.9204,3.3000
139918,1.9212,3.3000
139919,1.9179,3.3000
139920,1.9220,3.3000
139921,1.9171,3.3000
139922,1.9067,3.3000
139923,1.9171,3.3000
139924,1.9155,3.3000
139925,1.9268,3.3000
139926,1.9099,3.3000
139927,1.9316,3.3000
139928,1.9115,3.3000
139929,1.9139,3.3000
139930,1.9212,3.3000
139931,1.9163,3.3000
139932,1.9163,3.3000
139933,1.9196,3.3000
139934,1.9123,3.3000
139935,1.9171,3.3000
139936,1.9107,3.3000
139937,1.9075,3.3000
139938,1.9163,3.3000
139939,1.9163,3.3000
139940,1.9123,3.3000
139941,1.9131,3.3000
139942,1.9099,3.3000
139943,1.9131,3.3000
139944,1.9075,3.3000
139945,1.9059,3.3000
139946,1.9075,3.3000
139947,1.9107,3.3000
139948,1.9067,3.3000
139949,1.9155,3.3000
139950,1.9002,3.3000
139951,1.9107,3.3000
139952,1.9083,3.3000
139953,1.9083,3.3000
139954,1.9091,3.3000
139955,1.8994,3.3000
139956,1.9034,3.3000
139957,1.9067,3.3000
139958,1.9002,3.3000
139959,1.9083,3.3000
139960,1.9067,3.3000
139961,1.8954,3.3000
139962,1.9059,3.3000
139963,1.8978,3.3000
139964,1.9067,3.3000
139965,1.9026,3.3000
139966,1.9204,3.3000
139967,1.8978,3.3000
139968,1.9002,3.3000
139969,1.8954,3.3000
139970,1.9010,3.3000
139971,1.8914,3.3000
139972,1.8962,3.3000
139973,1.9026,3.3000
139974,1.8954,3.3000
139975,1.9010,3.3000
139976,1.8954,3.3000
139977,1.8954,3.3000
139978,1.8930,3.3000
139979,1.8978,3.3000
139980,1.8970,3.3000
139981,1.8930,3.3000
139982,1.8930,3.3000
139983,1.8954,3.3000
139984,1.8938,3.3000
139985,1.8922,3.3000
139986,1.8954,3.3000
139987,1.8905,3.3000
139988,1.8897,3.3000
139989,1.8930,3.3000
139990,1.8897,3.3000
139991,1.8849,3.3000
139992,1.8938,3.3000
139993,1.8873,3.3000
139994,1.8873,3.3000
139995,1.8873,3.3000
139996,1.8914,3.3000
139997,1.8905,3.3000
139998,1.8833,3.3000
139999,1.8897,3.3000
140000,1.8905,3.3000
140001,1.8905,3.3000
140002,1.8881,3.3000
140003,1.8817,3.3000
140004,1.8865,3.3000
140005,1.8857,3.3000
140006,1.8833,3.3000
140007,1.8849,3.3000
140008,1.8873,3.3000
140009,1.8914,3.3000
140010,1.8833,3.3000
140011,1.8841,3.3000
140012,1.8785,3.3000
140013,1.8817,3.3000
140014,1.8801,3.3000
140015,1.8777,3.3000
140016,1.8825,3.3000
140017,1.8825,3.3000
140018,1.8817,3.3000
140019,1.8825,3.3000
140020,1.8777,3.3000
140021,1.8817,3.3000
140022,1.8752,3.3000
140023,1.8752,3.3000
140024,1.8801,3.3000
140025,1.8849,3.3000
140026,1.8801,3.3000
140027,1.8817,3.3000
140028,1.8720,3.3000
140029,1.8954,3.3000
140030,1.8736,3.3000
140031,1.8696,3.3000
140032,1.8785,3.3000
140033,1.8801,3.3000
140034,1.8777,3.3000
140035,1.8704,3.3000
140036,1.8744,3.3000
140037,1.8720,3.3000
140038,1.8849,3.3000
140039,1.8696,3.3000
140040,1.8696,3.3000
140041,1.8905,3.3000
140042,1.8768,3.3000
140043,1.8785,3.3000
140044,1.8696,3.3000
140045,1.8785,3.3000
140046,1.8720,3.3000
140047,1.8696,3.3000
140048,1.8712,3.3000
140049,1.8680,3.3000
140050,1.8696,3.3000
140051,1.8672,3.3000
140052,1.8672,3.3000
140053,1.8696,3.3000
140054,1.8672,3.3000
140055,1.8712,3.3000
140056,1.8656,3.3000
140057,1.8696,3.3000
140058,1.8688,3.3000
140059,1.8623,3.3000
140060,1.8696,3.3000
140061,1.8704,3.3000
140062,1.8704,3.3000
140063,1.8648,3.3000
140064,1.8623,3.3000
140065,1.8640,3.3000
140066,1.8696,3.3000
140067,1.8623,3.3000
140068,1.8615,3.3000
140069,1.8615,3.3000
140070,1.8680,3.3000
140071,1.8664,3.3000
140072,1.8712,3.3000
140073,1.8648,3.3000
140074,1.8615,3.3000
140075,1.8591,3.3000
140076,1.8696,3.3000
140077,1.8672,3.3000
140078,1.8656,3.3000
140079,1.8656,3.3000
140080,1.8591,3.3000
140081,1.8615,3.3000
140082,1.8656,3.3000
140083,1.8623,3.3000
140084,1.8656,3.3000
140085,1.8648,3.3000
140086,1.8559,3.3000
140087,1.8648,3.3000
140088,1.8591,3.3000
140089,1.8583,3.3000
140090,1.8696,3.3000
140091,1.8575,3.3000
140092,1.8623,3.3000
140093,1.8591,3.3000
140094,1.8543,3.3000
140095,1.8623,3.3000
140096,1.8575,3.3000
140097,1.8575,3.3000
140098,1.8519,3.3000
140099,1.8575,3.3000
140100,1.8583,3.3000
140101,1.8559,3.3000
140102,1.8648,3.3000
140103,1.8615,3.3000
140104,1.8317,3.3000
140105,1.8583,3.3000
140106,1.8607,3.3000
140107,1.8575,3.3000
140108,1.8567,3.3000
140109,1.8495,3.3000
140110,1.8559,3.3000
140111,1.8591,3.3000
140112,1.8551,3.3000
140113,1.8511,3.3000
140114,1.8486,3.3000
140115,1.8519,3.3000
140116,1.8551,3.3000
140117,1.8495,3.3000
140118,1.8495,3.3000
140119,1.8543,3.3000
140120,1.8575,3.3000
140121,1.8511,3.3000
140122,1.8527,3.3000
140123,1.8495,3.3000
140124,1.8470,3.3000
140125,1.8446,3.3000
140126,1.8486,3.3000
140127,1.8486,3.3000
140128,1.8559,3.3000
140129,1.8511,3.3000
140130,1.8486,3.3000
140131,1.8495,3.3000
140132,1.8462,3.3000
140133,1.8462,3.3000
140134,1.8462,3.3000
140135,1.8519,3.3000
140136,1.8462,3.3000
140137,1.8462,3.3000
140138,1.8478,3.3000
140139,1.8446,3.3000
140140,1.8495,3.3000
140141,1.8462,3.3000
140142,1.8462,3.3000
140143,1.8446,3.3000
140144,1.8422,3.3000
140145,1.8462,3.3000
140146,1.8390,3.3000
140147,1.8486,3.3000
140148,1.8438,3.3000
140149,1.8414,3.3000
140150,1.8462,3.3000
140151,1.8438,3.3000
140152,1.8438,3.3000
140153,1.8422,3.3000
140154,1.8414,3.3000
140155,1.8398,3.3000
140156,1.8398,3.3000
140157,1.8438,3.3000
140158,1.8438,3.3000
140159,1.8382,3.3000
140160,1.8382,3.3000
140161,1.8430,3.3000
140162,1.8430,3.3000
140163,1.8366,3.3000
140164,1.8398,3.3000
140165,1.8390,3.3000
140166,1.8422,3.3000
140167,1.8398,3.3000
140168,1.8325,3.3000
140169,1.8382,3.3000
140170,1.8349,3.3000
140171,1.8382,3.3000
140172,1.8301,3.3000
140173,1.8349,3.3000
140174,1.8390,3.3000
140175,1.8301,3.3000
140176,1.8325,3.3000
140177,1.8390,3.3000
140178,1.8333,3.3000
140179,1.8349,3.3000
140180,1.8269,3.3000
140181,1.8333,3.3000
140182,1.8309,3.3000
140183,1.8333,3.3000
140184,1.8333,3.3000
140185,1.8269,3.3000
140186,1.8156,3.3000
140187,1.8293,3.3000
140188,1.8301,3.3000
140189,1.8261,3.3000
140190,1.8269,3.3000
140191,1.8221,3.3000
140192,1.8293,3.3000
140193,1.8253,3.3000
140194,1.8253,3.3000
140195,1.8301,3.3000
140196,1.8229,3.3000
140197,1.8221,3.3000
140198,1.8237,3.3000
140199,1.8221,3.3000
140200,1.8180,3.3000
140201,1.8237,3.3000
140202,1.8180,3.3000
140203,1.8180,3.3000
140204,1.8261,3.3000
140205,1.8180,3.3000
140206,1.8188,3.3000
140207,1.8156,3.3000
140208,1.8180,3.3000
140209,1.8156,3.3000
140210,1.8180,3.3000
140211,1.8075,3.3000
140212,1.8164,3.3000
140213,1.8180,3.3000
140214,1.8132,3.3000
140215,1.8180,3.3000
140216,1.8156,3.3000
140217,1.8196,3.3000
140218,1.8156,3.3000
140219,1.8180,3.3000
140220,1.8124,3.3000
140221,1.8156,3.3000
140222,1.8180,3.3000
140223,1.8156,3.3000
140224,1.8100,3.3000
140225,1.8132,3.3000
140226,1.8075,3.3000
140227,1.8108,3.3000
140228,1.8172,3.3000
140229,1.8084,3.3000
140230,1.8092,3.3000
140231,1.8075,3.3000
140232,1.8043,3.3000
140233,1.8043,3.3000
140234,1.8092,3.3000
140235,1.8051,3.3000
140236,1.8027,3.3000
140237,1.8132,3.3000
140238,1.8035,3.3000
140239,1.8059,3.3000
140240,1.8027,3.3000
140241,1.7963,3.3000
140242,1.8003,3.3000
140243,1.8059,3.3000
140244,1.7995,3.3000
140245,1.8035,3.3000
140246,1.8051,3.3000
140247,1.8003,3.3000
140248,1.8027,3.3000
140249,1.8011,3.3000
140250,1.8011,3.3000
140251,1.7979,3.3000
140252,1.8011,3.3000
140253,1.8043,3.3000
140254,1.8003,3.3000
140255,1.8011,3.3000
140256,1.8084,3.3000
140257,1.8003,3.3000
140258,1.7995,3.3000
140259,1.8011,3.3000
140260,1.7995,3.3000
140261,1.7938,3.3000
140262,1.7922,3.3000
140263,1.7963,3.3000
140264,1.7955,3.3000
140265,1.7914,3.3000
140266,1.8156,3.3000
140267,1.7938,3.3000
140268,1.7906,3.3000
140269,1.7922,3.3000
140270,1.8051,3.3000
140271,1.7922,3.3000
140272,1.7906,3.3000
140273,1.7882,3.3000
140274,1.7906,3.3000
140275,1.7922,3.3000
140276,1.8140,3.3000
140277,1.7971,3.3000
140278,1.7906,3.3000
140279,1.7850,3.3000
140280,1.7922,3.3000
140281,1.7906,3.3000
140282,1.7906,3.3000
140283,1.7834,3.3000
140284,1.7834,3.3000
140285,1.7826,3.2936
140286,1.7818,3.2742
140287,1.7842,3.2581
140288,1.7874,3.2420
140289,1.7810,3.2114
140290,1.7826,3.2081
140291,1.7801,3.1840
140292,1.7810,3.1678
140293,1.7866,3.1533
140294,1.7866,3.1332
140295,1.7810,3.1203
140296,1.7834,3.1034
140297,1.8027,3.0897
140298,1.7761,3.0744
140299,1.7793,3.0663
140300,1.7922,3.0510
140301,1.7753,3.0405
140302,1.7721,3.0260
140303,1.7745,3.0179
140304,1.7777,2.9986
140305,1.7753,2.9922
140306,1.7721,2.9825
140307,1.7697,2.9712
140308,1.7745,2.9672
140309,1.7664,2.9543
140310,1.7689,2.9527
140311,1.7681,2.9374
140312,1.7689,2.9325
140313,1.7673,2.9196
140314,1.7664,2.9172
140315,1.7664,2.9221
140316,1.7656,2.8874
140317,1.7656,2.8810
140318,1.7664,2.8584
140319,1.7656,2.8769
140320,1.7656,2.8745
140321,1.7673,2.8673
140322,1.7616,2.8616
140323,1.7681,2.8495
140324,1.7664,2.8495
140325,1.7648,2.8495
140326,1.7664,2.8423
140327,1.7640,2.8374
140328,1.7624,2.8382
140329,1.7624,2.8350
140330,1.7648,2.8278
140331,1.7592,2.8237
140332,1.7552,2.8165
140333,1.7656,2.8237
140334,1.7608,2.8052
140335,1.7560,2.8487
140336,1.7544,2.8012
140337,1.7584,2.8334
140338,1.7560,2.7971
140339,1.7576,2.7939
140340,1.7536,2.7923
140341,1.7584,2.7891
140342,1.7592,2.7891
140343,1.7664,2.7851
140344,1.7536,2.7842
140345,1.7560,2.7802
140346,1.7519,2.7762
140347,1.7576,2.7754
140348,1.7527,2.7730
140349,1.7568,2.7705
140350,1.7624,2.7705
140351,1.7536,2.7705
140352,1.7536,2.7649
140353,1.7536,2.7649
140354,1.7552,2.7585
140355,1.7536,2.7633
140356,1.7592,2.7585
140357,1.7544,2.7593
140358,1.7495,2.7552
140359,1.7527,2.7520
140360,1.7552,2.7568
140361,1.7511,2.7577
140362,1.7544,2.7552
140363,1.7616,2.7464
140364,1.7479,2.7472
140365,1.7519,2.7432
140366,1.7536,2.7391
140367,1.7527,2.7440
140368,1.7536,2.7641
140369,1.7519,2.7440
140370,1.7495,2.7415
140371,1.7519,2.7407
140372,1.7511,2.7415
140373,1.7463,2.7391
140374,1.7527,2.7359
140375,1.7511,2.7375
140376,1.7487,2.7343
140377,1.7495,2.7327
140378,1.7519,2.7303
140379,1.7511,2.7295
140380,1.7519,2.7295
140381,1.7447,2.7311
140382,1.7487,2.7206
140383,1.7495,2.7254
140384,1.7431,2.7246
140385,1.7536,2.7214
140386,1.7455,2.7254
140387,1.7519,2.7230
140388,1.7519,2.7206
140389,1.7439,2.7206
140390,1.7439,2.7101
140391,1.7511,2.7246
140392,1.7447,2.7174
140393,1.7487,2.7182
140394,1.7519,2.7021
140395,1.7431,2.6747
140396,1.7495,2.6432
140397,1.7479,2.6086
140398,1.7431,2.5779
140399,1.7399,2.5272
140400,1.7382,2.5062
140401,1.7390,2.4667
140402,1.7407,2.4474
140403,1.7326,2.4232
140404,1.7350,2.4216
140405,1.7318,2.4264
140406,1.7358,2.4345
140407,1.7390,2.4506
140408,1.7294,2.4627
140409,1.7407,2.4885
140410,1.7374,2.4748
140411,1.7407,2.4643
140412,1.7423,2.4490
140413,1.7318,2.4256
140414,1.7439,2.4007
140415,1.7366,2.3725
140416,1.7366,2.3491
140417,1.7407,2.3281
140418,1.7334,2.3007
140419,1.7366,2.2814
140420,1.7326,2.2741
140421,1.7302,2.2822
140422,1.7237,2.2983
140423,1.7286,2.3096
140424,1.7366,2.3297
140425,1.7326,2.3483
140426,1.7366,2.3588
140427,1.7407,2.3571
140428,1.7366,2.3362
140429,1.7407,2.3193
140430,1.7455,2.3023
140431,1.7407,2.2766
140432,1.7334,2.2580
140433,1.7358,2.2363
140434,1.7294,2.2121
140435,1.7270,2.1927
140436,1.7318,2.1774
140437,1.7278,2.1790
140438,1.7294,2.1799
140439,1.7237,2.2008
140440,1.7278,2.2226
140441,1.7366,2.2492
140442,1.7334,2.2677
140443,1.7318,2.2717
140444,1.7366,2.2733
140445,1.7350,2.2588
140446,1.7342,2.2330
140447,1.7358,2.2169
140448,1.7350,2.2089
140449,1.7366,2.1815
140450,1.7358,2.1702
140451,1.7366,2.1428
140452,1.7253,2.1234
140453,1.7253,2.1146
140454,1.7294,2.1218
140455,1.7262,2.1275
140456,1.7278,2.1428
140457,1.7286,2.1678
140458,1.7245,2.1790
140459,1.7302,2.2153
140460,1.7399,2.2064
140461,1.7374,2.2097
140462,1.7374,2.1976
140463,1.7382,2.1758
140464,1.7366,2.1533
140465,1.7536,2.1331
140466,1.7318,2.1154
140467,1.7358,2.1299
140468,1.7302,2.0622
140469,1.7294,2.0509
140470,1.7270,2.0429
140471,1.7270,2.0549
140472,1.7302,2.0807
140473,1.7294,2.1017
140474,1.7334,2.1323
140475,1.7318,2.1533
140476,1.7294,2.1718
140477,1.7390,2.1782
140478,1.7382,2.1605
140479,1.7366,2.1533
140480,1.7366,2.1331
140481,1.7407,2.1218
140482,1.7382,2.1057
140483,1.7358,2.0864
140484,1.7302,2.0622
140485,1.7366,2.0429
140486,1.7286,2.0300
140487,1.7286,2.0316
140488,1.7278,2.0372
140489,1.7262,2.0832
140490,1.7318,2.0977
140491,1.7302,2.1259
140492,1.7350,2.1460
140493,1.7358,2.1621
140494,1.7358,2.1533
140495,1.7407,2.1508
140496,1.7366,2.1331
140497,1.7374,2.1202
140498,1.7390,2.1017
140499,1.7318,2.0872
140500,1.7318,2.0598
140501,1.7294,2.0493
140502,1.7334,2.0300
140503,1.7229,2.0171
140504,1.7278,2.0114
140505,1.7253,2.0372
140506,1.7278,2.0590
140507,1.7286,2.0977
140508,1.7286,2.1251
140509,1.7350,2.1484
140510,1.7326,2.1379
140511,1.7358,2.1492
140512,1.7399,2.1379
140513,1.7318,2.1218
140514,1.7310,2.1081
140515,1.7399,2.0968
140516,1.7318,2.0622
140517,1.7278,2.0598
140518,1.7334,2.0348
140519,1.7270,2.0187
140520,1.7245,2.0155
140521,1.7245,2.0243
140522,1.7286,2.0437
140523,1.7270,2.0614
140524,1.7294,2.1097
140525,1.7318,2.1226
140526,1.7366,2.1347
140527,1.7358,2.1363
140528,1.7326,2.1331
140529,1.7407,2.1202
140530,1.7326,2.0960
140531,1.7366,2.0912
140532,1.7286,2.0622
140533,1.7302,2.0453
140534,1.7262,2.0364
140535,1.7278,2.0122
140536,1.7270,1.9993
140537,1.7229,2.0026
140538,1.7237,2.0130
140539,1.7213,2.0235
140540,1.7229,2.0533
140541,1.7310,2.0904
140542,1.7302,2.1178
140543,1.7334,2.1194
140544,1.7334,2.1170
140545,1.7366,2.1146
140546,1.7334,2.1057
140547,1.7326,2.0904
140548,1.7270,2.0622
140549,1.7334,2.0517
140550,1.7350,2.0364
140551,1.7286,2.0171
140552,1.7270,2.0066
140553,1.7253,1.9937
140554,1.7205,1.9953
140555,1.7221,1.9840
140556,1.7229,2.0259
140557,1.7270,2.0509
140558,1.7253,2.0880
140559,1.7318,2.1146
140560,1.7270,2.1097
140561,1.7302,2.1017
140562,1.7318,2.1017
140563,1.7326,2.0807
140564,1.7262,2.0622
140565,1.7270,2.0501
140566,1.7229,2.0396
140567,1.7237,2.0284
140568,1.7205,2.0001
140569,1.7205,1.9913
140570,1.7165,1.9816
140571,1.7189,1.9703
140572,1.7157,1.9993
140573,1.7197,2.0251
140574,1.7229,2.0509
140575,1.7229,2.0864
140576,1.7302,2.1041
140577,1.7270,2.1025
140578,1.7286,2.1017
140579,1.7286,2.0815
140580,1.7270,2.0622
140581,1.7262,2.0549
140582,1.7286,2.0469
140583,1.7229,2.0259
140584,1.7253,2.0122
140585,1.7221,1.9937
140586,1.7197,1.9808
140587,1.7229,1.9768
140588,1.7157,1.9913
140589,1.7229,2.0114
140590,1.7253,2.0316
140591,1.7237,2.0622
140592,1.7245,2.0896
140593,1.7286,2.1017
140594,1.7286,2.1041
140595,1.7286,2.0944
140596,1.7286,2.0815
140597,1.7253,2.0622
140598,1.7253,2.0525
140599,1.7278,2.0372
140600,1.7270,2.0227
140601,1.7253,2.0034
140602,1.7149,1.9897
140603,1.7165,1.9985
140604,1.7157,1.9784
140605,1.7173,1.9873
140606,1.7173,2.0114
140607,1.7157,2.0421
140608,1.7237,2.0622
140609,1.7221,2.0944
140610,1.7286,2.1017
140611,1.7294,2.1017
140612,1.7278,2.1017
140613,1.7262,2.0622
140614,1.7286,2.0622
140615,1.7326,2.0501
140616,1.7237,2.0316
140617,1.7253,2.0235
140618,1.7205,2.0066
140619,1.7173,1.9897
140620,1.7165,1.9744
140621,1.7181,1.9824
140622,1.7205,2.0001
140623,1.7197,2.0259
140624,1.7189,2.0582
140625,1.7221,2.0960
140626,1.7253,2.1299
140627,1.7253,2.1452
140628,1.7302,2.1508
140629,1.7318,2.1444
140630,1.7286,2.1396
140631,1.7334,2.1194
140632,1.7302,2.1089
140633,1.7342,2.0872
140634,1.7294,2.0622
140635,1.7237,2.0509
140636,1.7237,2.0404
140637,1.7326,2.0364
140638,1.7262,2.0493
140639,1.7262,2.0622
140640,1.7262,2.0944
140641,1.7237,2.1251
140642,1.7286,2.1533
140643,1.7302,2.1823
140644,1.7318,2.2081
140645,1.7358,2.2169
140646,1.7318,2.2097
140647,1.7350,2.1976
140648,1.7350,2.1863
140649,1.7294,2.1670
140650,1.7318,2.1508
140651,1.7278,2.1323
140652,1.7302,2.1146
140653,1.7286,2.0993
140654,1.7286,2.1065
140655,1.7310,2.1226
140656,1.7245,2.1347
140657,1.7294,2.1589
140658,1.7286,2.1790
140659,1.7318,2.2081
140660,1.7302,2.2403
140661,1.7382,2.2693
140662,1.7326,2.2999
140663,1.7399,2.3120
140664,1.7431,2.3209
140665,1.7447,2.3080
140666,1.7519,2.2959
140667,1.7479,2.2798
140668,1.7479,2.2588
140669,1.7455,2.2387
140670,1.7503,2.2306
140671,1.7463,2.2330
140672,1.7511,2.2524
140673,1.7536,2.2669
140674,1.7536,2.2822
140675,1.7560,2.3032
140676,1.7536,2.3185
140677,1.7576,2.3410
140678,1.7576,2.3716
140679,1.7592,2.3853
140680,1.7656,2.4071
140681,1.7801,2.4103
140682,1.7721,2.3982
140683,1.7745,2.3934
140684,1.7745,2.3765
140685,1.7753,2.3539
140686,1.7769,2.3362
140687,1.7753,2.3338
140688,1.7769,2.3378
140689,1.7785,2.3394
140690,1.7801,2.3676
140691,1.7818,2.3813
140692,1.7810,2.3942
140693,1.7818,2.4095
140694,1.7834,2.4256
140695,1.7834,2.4458
140696,1.7866,2.4643
140697,1.7914,2.4909
140698,1.7922,2.5022
140699,1.7963,2.5046
140700,1.8051,2.4990
140701,1.8043,2.4716
140702,1.8092,2.4490
140703,1.8092,2.4369
140704,1.8108,2.4361
140705,1.8132,2.4498
140706,1.8164,2.4490
140707,1.8156,2.4635
140708,1.8148,2.4748
140709,1.8156,2.4941
140710,1.8188,2.5103
140711,1.8180,2.5280
140712,1.8204,2.5481
140713,1.8188,2.5626
140714,1.8204,2.5788
140715,1.8285,2.5876
140716,1.8382,2.5715
140717,1.8422,2.5554
140718,1.8430,2.5344
140719,1.8438,2.5062
140720,1.8478,2.4958
140721,1.8478,2.4998
140722,1.8470,2.5046
140723,1.8511,2.5143
140724,1.8495,2.5272
140725,1.8543,2.5393
140726,1.8543,2.5538
140727,1.8551,2.5739
140728,1.8696,2.5916
140729,1.8559,2.6062
140730,1.8551,2.5796
140731,1.8583,2.6319
140732,1.8648,2.6247
140733,1.8696,2.6037
140734,1.8696,2.5812
140735,1.8672,2.5538
140736,1.8623,2.5264
140737,1.8680,2.5256
140738,1.8696,2.5232
140739,1.8672,2.5328
140740,1.8664,2.5401
140741,1.8623,2.5514
140742,1.8567,2.5667
140743,1.8696,2.5844
140744,1.8648,2.6013
140745,1.8648,2.6199
140746,1.8623,2.6432
140747,1.8768,2.6481
140748,1.8688,2.6408
140749,1.8696,2.6303
140750,1.8704,2.6021
140751,1.8696,2.5779
140752,1.8785,2.5497
140753,1.8672,2.5280
140754,1.8696,2.5175
140755,1.8672,2.5215
140756,1.8696,2.5328
140757,1.8696,2.5449
140758,1.8696,2.5651
140759,1.8688,2.5707
140760,1.8696,2.5916
140761,1.8632,2.6126
140762,1.8623,2.6126
140763,1.8688,2.6432
140764,1.8672,2.6521
140765,1.8696,2.6424
140766,1.8704,2.6150
140767,1.8720,2.5925
140768,1.8680,2.5618
140769,1.8696,2.5320
140770,1.8696,2.5143
140771,1.8607,2.5119
140772,1.8656,2.5223
140773,1.8656,2.5312
140774,1.8648,2.5401
140775,1.8648,2.5602
140776,1.8680,2.5820
140777,1.8648,2.5933
140778,1.8438,2.6142
140779,1.8817,2.6303
140780,1.8736,2.6424
140781,1.8688,2.6336
140782,1.8688,2.6166
140783,1.8768,2.5925
140784,1.8696,2.5715
140785,1.8535,2.5360
140786,1.8696,2.5159
140787,1.8607,2.4941
140788,1.8752,2.4941
140789,1.8615,2.5103
140790,1.8640,2.5223
140791,1.8640,2.5385
140792,1.8623,2.5514
140793,1.8664,2.5771
140794,1.8591,2.5916
140795,1.8640,2.6118
140796,1.8640,2.6247
140797,1.8648,2.6279
140798,1.8704,2.6126
140799,1.8720,2.5900
140800,1.8736,2.5642
140801,1.8688,2.5401
140802,1.8696,2.5143
140803,1.8688,2.4885
140804,1.8656,2.4869
140805,1.8607,2.4748
140806,1.8648,2.4901
140807,1.8519,2.5054
140808,1.8648,2.5280
140809,1.8656,2.5425
140810,1.8688,2.5651
140811,1.8648,2.5908
140812,1.8632,2.6021
140813,1.8712,2.6053
140814,1.8696,2.5876
140815,1.8688,2.5747
140816,1.8696,2.5505
140817,1.8680,2.5256
140818,1.8688,2.5006
140819,1.8696,2.4675
140820,1.8656,2.4474
140821,1.8623,2.4410
140822,1.8583,2.4474
140823,1.8591,2.4627
140824,1.8623,2.4748
140825,1.8591,2.5006
140826,1.8607,2.5280
140827,1.8865,2.5409
140828,1.8583,2.5659
140829,1.8656,2.5707
140830,1.8672,2.5675
140831,1.8720,2.5522
140832,1.8736,2.5280
140833,1.8696,2.5070
140834,1.8720,2.4748
140835,1.8696,2.4514
140836,1.8623,2.4240
140837,1.8599,2.4063
140838,1.8640,2.4031
140839,1.8478,2.4200
140840,1.8575,2.4297
140841,1.8623,2.4506
140842,1.8623,2.4740
140843,1.8623,2.4958
140844,1.8615,2.5199
140845,1.8656,2.5304
140846,1.8656,2.5344
140847,1.8728,2.5143
140848,1.8720,2.5038
140849,1.8712,2.4748
140850,1.8696,2.4506
140851,1.8664,2.4321
140852,1.8672,2.4055
140853,1.8648,2.3813
140854,1.8591,2.3813
140855,1.8615,2.3773
140856,1.8640,2.3942
140857,1.8623,2.4111
140858,1.8656,2.4393
140859,1.8607,2.4555
140860,1.8607,2.4740
140861,1.8648,2.4974
140862,1.8688,2.5062
140863,1.8696,2.4998
140864,1.8688,2.4845
140865,1.8712,2.4643
140866,1.8704,2.4442
140867,1.8696,2.4224
140868,1.8559,2.3950
140869,1.8640,2.3741
140870,1.8623,2.3523
140871,1.8599,2.3491
140872,1.8607,2.3588
140873,1.8567,2.3716
140874,1.8607,2.3910
140875,1.8583,2.4136
140876,1.8567,2.4369
140877,1.8559,2.4595
140878,1.8575,2.4740
140879,1.8656,2.4732
140880,1.8696,2.4651
140881,1.8720,2.4474
140882,1.8696,2.4168
140883,1.8704,2.4095
140884,1.8688,2.3862
140885,1.8680,2.3636
140886,1.8623,2.3394
140887,1.8438,2.3225
140888,1.8615,2.3281
140889,1.8615,2.3386
140890,1.8559,2.3588
140891,1.8640,2.3781
140892,1.8567,2.3990
140893,1.8567,2.4200
140894,1.8575,2.4369
140895,1.8656,2.4369
140896,1.8704,2.4281
140897,1.8768,2.4071
140898,1.8760,2.3942
140899,1.8857,2.3741
140900,1.8768,2.3571
140901,1.8591,2.3338
140902,1.8817,2.3104
140903,1.8744,2.2951
140904,1.8704,2.2822
140905,1.8704,2.2846
140906,1.8736,2.3040
140907,1.8704,2.3201
140908,1.8704,2.3418
140909,1.8720,2.3539
140910,1.8752,2.3878
140911,1.8712,2.4007
140912,1.8752,2.3982
140913,1.8744,2.3853
140914,1.8704,2.3716
140915,1.8648,2.3539
140916,1.8656,2.3338
140917,1.8656,2.3152
140918,1.8567,2.2895
140919,1.8551,2.2701
140920,1.8559,2.2564
140921,1.8430,2.2467
140922,1.8567,2.2564
140923,1.8446,2.2685
140924,1.8591,2.2854
140925,1.8511,2.3096
140926,1.8446,2.3378
140927,1.8535,2.3620
140928,1.8527,2.3588
140929,1.8543,2.3539
140930,1.8527,2.3499
140931,1.8519,2.3265
140932,1.8495,2.3088
140933,1.8438,2.2854
140934,1.8430,2.2685
140935,1.8414,2.2492
140936,1.8414,2.2306
140937,1.8390,2.2129
140938,1.8366,2.2161
140939,1.8349,2.2177
140940,1.8301,2.2387
140941,1.8349,2.2621
140942,1.8293,2.2822
140943,1.8390,2.3080
140944,1.8366,2.3096
140945,1.8414,2.3064
140946,1.8438,2.2959
140947,1.8430,2.2822
140948,1.8358,2.2782
140949,1.8398,2.2419
140950,1.8349,2.2306
140951,1.8285,2.2073
140952,1.8196,2.1782
140953,1.8253,2.1750
140954,1.8269,2.1573
140955,1.8164,2.1605
140956,1.8180,2.1718
140957,1.8180,2.1944
140958,1.8180,2.2137
140959,1.8196,2.2419
140960,1.8237,2.2459
140961,1.8221,2.2403
140962,1.8277,2.2314
140963,1.8293,2.2185
140964,1.8285,2.2266
140965,1.8204,2.1879
140966,1.8196,2.1662
140967,1.8180,2.1420
140968,1.8092,2.1315
140969,1.8108,2.1138
140970,1.8108,2.0936
140971,1.8075,2.0944
140972,1.8140,2.1017
140973,1.8075,2.1275
140974,1.8043,2.1460
140975,1.8051,2.1678
140976,1.8108,2.2177
140977,1.8059,2.2121
140978,1.8051,2.2056
140979,1.8043,2.1944
140980,1.8043,2.1847
140981,1.8011,2.1653
140982,1.7995,2.1516
140983,1.7995,2.1476
140984,1.7995,2.1146
140985,1.7963,2.1001
140986,1.7930,2.0622
140987,1.7914,2.0622
140988,1.7914,2.0622
140989,1.7914,2.0993
140990,1.7842,2.1122
140991,1.7906,2.1420
140992,1.7914,2.1678
140993,1.7914,2.1782
140994,1.7922,2.1686
140995,1.7947,2.1637
140996,1.7922,2.1525
140997,1.7930,2.1363
140998,1.7914,2.1146
140999,1.7850,2.1025
141000,1.7818,2.0840
141001,1.7842,2.0622
141002,1.7769,2.0429
141003,1.7761,2.0130
141004,1.7721,2.0251
141005,1.7689,2.0412
141006,1.7673,2.0622
141007,1.7721,2.0856
141008,1.7745,2.1146
141009,1.7753,2.1363
141010,1.7785,2.1428
141011,1.7777,2.1533
141012,1.7769,2.1267
141013,1.7850,2.1186
141014,1.7753,2.1009
141015,1.7745,2.0880
141016,1.7713,2.0622
141017,1.7737,2.0501
141018,1.7713,2.0324
141019,1.7664,2.0227
141020,1.7640,2.0090
141021,1.7640,2.0114
141022,1.7616,2.0203
141023,1.7616,2.0517
141024,1.7640,2.0888
141025,1.7664,2.1218
141026,1.7705,2.1339
141027,1.7689,2.1315
141028,1.7697,2.1234
141029,1.7745,2.1146
141030,1.7664,2.1138
141031,1.7664,2.0888
141032,1.7681,2.0622
141033,1.7656,2.0525
141034,1.7648,2.0380
141035,1.7632,2.0251
141036,1.7592,2.0074
141037,1.7536,2.0098
141038,1.7544,2.0098
141039,1.7576,2.0300
141040,1.7576,2.0533
141041,1.7576,2.0936
141042,1.7640,2.1154
141043,1.7608,2.1226
141044,1.7673,2.1218
141045,1.7664,2.1202
141046,1.7664,2.1186
141047,1.7608,2.0622
141048,1.7632,2.0622
141049,1.7584,2.0541
141050,1.7560,2.0461
141051,1.7552,2.0243
141052,1.7544,2.0122
141053,1.7527,1.9993
141054,1.7447,1.9985
141055,1.7479,2.0155
141056,1.7495,2.0332
141057,1.7544,2.0614
141058,1.7544,2.0952
141059,1.7568,2.1041
141060,1.7624,2.1154
141061,1.7592,2.1170
141062,1.7584,2.1041
141063,1.7624,2.0977
141064,1.7648,2.0832
141065,1.7544,2.0574
141066,1.7576,2.0501
141067,1.7552,2.0412
141068,1.7536,2.0147
141069,1.7519,1.9969
141070,1.7479,1.9889
141071,1.7503,1.9985
141072,1.7431,2.0155
141073,1.7463,2.0453
141074,1.7479,2.0622
141075,1.7552,2.1041
141076,1.7527,2.1114
141077,1.7584,2.1259
141078,1.7608,2.1218
141079,1.7584,2.1138
141080,1.7624,2.0936
141081,1.7576,2.0622
141082,1.7511,2.0622
141083,1.7552,2.0501
141084,1.7536,2.0348
141085,1.7527,2.0243
141086,1.7463,2.0074
141087,1.7519,2.0106
141088,1.7415,2.0195
141089,1.7479,2.0549
141090,1.7423,2.0622
141091,1.7479,2.1049
141092,1.7503,2.1275
141093,1.7544,2.1388
141094,1.7560,2.1404
141095,1.7592,2.1283
141096,1.7536,2.1275
141097,1.7487,2.1138
141098,1.7527,2.0968
141099,1.7544,2.0606
141100,1.7527,2.0614
141101,1.7519,2.0372
141102,1.7463,2.0259
141103,1.7415,2.0187
141104,1.7447,2.0243
141105,1.7463,2.0412
141106,1.7479,2.0622
141107,1.7447,2.0985
141108,1.7536,2.1275
141109,1.7503,2.1500
141110,1.7592,2.1557
141111,1.7584,2.1460
141112,1.7560,2.1379
141113,1.7544,2.1275
141114,1.7544,2.1073
141115,1.7536,2.1009
141116,1.7560,2.0622
141117,1.7495,2.0541
141118,1.7455,2.0421
141119,1.7495,2.0243
141120,1.7463,2.0243
141121,1.7463,2.0243
141122,1.7423,2.0501
141123,1.7447,2.0622
141124,1.7495,2.1130
141125,1.7479,2.1396
141126,1.7511,2.1629
141127,1.7536,2.1694
141128,1.7536,2.1557
141129,1.7576,2.1573
141130,1.7584,2.1460
141131,1.7560,2.1275
141132,1.7511,2.1114
141133,1.7544,2.0888
141134,1.7552,2.0622
141135,1.7536,2.0525
141136,1.7527,2.0461
141137,1.7511,2.0549
141138,1.7439,2.0622
141139,1.7479,2.0864
141140,1.7503,2.1202
141141,1.7463,2.1516
141142,1.7511,2.1742
141143,1.7552,2.2089
141144,1.7664,2.2201
141145,1.7616,2.2177
141146,1.7399,2.2073
141147,1.7616,2.1944
141148,1.7648,2.1807
141149,1.7552,2.1605
141150,1.7576,2.1476
141151,1.7584,2.1299
141152,1.7608,2.1122
141153,1.7584,2.1097
141154,1.7568,2.1146
141155,1.7536,2.1379
141156,1.7552,2.1444
141157,1.7576,2.1653
141158,1.7536,2.1815
141159,1.7584,2.2064
141160,1.7592,2.2290
141161,1.7624,2.2475
141162,1.7664,2.2669
141163,1.7640,2.2838
141164,1.7656,2.3064
141165,1.7664,2.3193
141166,1.7673,2.3354
141167,1.7664,2.3523
141168,1.7664,2.3636
141169,1.7705,2.3853
141170,1.7431,2.3853
141171,1.7721,2.4095
141172,1.7705,2.4095
141173,1.7713,2.4160
141174,1.7681,2.4240
141175,1.7745,2.4361
141176,1.7769,2.4434
141177,1.7737,2.4547
141178,1.7793,2.4627
141179,1.7785,2.4659
141180,1.7753,2.4748
141181,1.7810,2.4885
141182,1.7785,2.4933
141183,1.7810,2.5030
141184,1.7810,2.5070
141185,1.7850,2.5167
141186,1.7801,2.5199
141187,1.7874,2.5280
141188,1.7826,2.5377
141189,1.7850,2.5401
141190,1.7850,2.5441
141191,1.7882,2.5546
141192,1.7842,2.5546
141193,1.7898,2.5610
141194,1.7882,2.5659
141195,1.7898,2.5683
141196,1.7882,2.5755
141197,1.7914,2.5788
141198,1.7906,2.5820
141199,1.7882,2.5876
141200,1.7898,2.5868
141201,1.7906,2.5933
141202,1.7882,2.5941
141203,1.7882,2.6021
141204,1.7914,2.6086
141205,1.7914,2.6062
141206,1.7914,2.6118
141207,1.7882,2.6134
141208,1.7914,2.6166
141209,1.7914,2.6190
141210,1.7906,2.6247
141211,1.7906,2.6295
141212,1.7850,2.6303
141213,1.7914,2.6311
141214,1.7882,2.6384
141215,1.7906,2.6432
141216,1.7801,2.6400
141217,1.7922,2.6448
141218,1.7922,2.6456
141219,1.7882,2.6481
141220,1.7922,2.6505
141221,1.7922,2.6569
141222,1.7906,2.6569
141223,1.7914,2.6618
141224,1.7898,2.6706
141225,1.7914,2.6650
141226,1.8092,2.6674
141227,1.7938,2.6690
141228,1.7882,2.6714
141229,1.7898,2.6730
141230,1.7947,2.6730
141231,1.7922,2.6932
141232,1.7922,2.6795
141233,1.7930,2.6819
141234,1.7922,2.6827
141235,1.7922,2.6843
141236,1.7922,2.6835
141237,1.7826,2.6819
141238,1.7922,2.6924
141239,1.7938,2.6924
141240,1.7914,2.6924
141241,1.7971,2.6972
141242,1.7963,2.7037
141243,1.7947,2.6988
141244,1.7922,2.7029
141245,1.7938,2.7029
141246,1.8003,2.7101
141247,1.7922,2.7109
141248,1.8035,2.7133
141249,1.7914,2.7166
141250,1.7971,2.7149
141251,1.7930,2.7206
141252,1.7963,2.7206
141253,1.7938,2.7222
141254,1.7955,2.7206
141255,1.7922,2.7286
141256,1.7930,2.7319
141257,1.7947,2.7335
141258,1.7938,2.7327
141259,1.7947,2.7367
141260,1.7922,2.7375
141261,1.7930,2.7423
141262,1.7947,2.7464
141263,1.7938,2.7464
141264,1.7947,2.7488
141265,1.7963,2.7552
141266,1.7938,2.7585
141267,1.7922,2.7633
141268,1.7930,2.7794
141269,1.7955,2.7730
141270,1.7930,2.7802
141271,1.8003,2.7891
141272,1.7938,2.8068
141273,1.7922,2.7979
141274,1.7922,2.8068
141275,1.7938,2.8213
141276,1.8011,2.8237
141277,1.8084,2.8382
141278,1.7922,2.8479
141279,1.7963,2.8576
141280,1.7922,2.8713
141281,1.8003,2.8801
141282,1.7938,2.8874
141283,1.7971,2.9059
141284,1.7979,2.9221
141285,1.7922,2.9341
141286,1.8003,2.9503
141287,1.7979,2.9648
141288,1.7979,2.9777
141289,1.7777,2.9914
141290,1.7971,3.0051
141291,1.8027,3.0091
141292,1.8019,3.0341
141293,1.8027,3.0462
141294,1.8043,3.0478
141295,1.8011,3.0719
141296,1.7963,3.0816
141297,1.7995,3.0961
141298,1.7761,3.1090
141299,1.8011,3.1163
141300,1.7947,3.1324
141301,1.8027,3.1445
141302,1.8043,3.1469
141303,1.8059,3.1638
141304,1.8027,3.1727
141305,1.7979,3.1799
141306,1.7850,3.1888
141307,1.8075,3.2017
141308,1.8132,3.2105
141309,1.8108,3.2130
141310,1.8051,3.2210
141311,1.8124,3.2267
141312,1.8067,3.2420
141313,1.8027,3.2468
141314,1.8059,3.2516
141315,1.8043,3.2621
141316,1.8100,3.2670
141317,1.8084,3.2799
141318,1.8067,3.2879
141319,1.8124,3.2903
141320,1.8180,3.3000
141321,1.8108,3.3000
141322,1.8108,3.3000
141323,1.8164,3.3000
141324,1.8124,3.3000
141325,1.8156,3.3000
141326,1.8172,3.3000
141327,1.8156,3.3000
141328,1.8269,3.3000
141329,1.8132,3.3000
141330,1.8180,3.3000
141331,1.8156,3.3000
141332,1.8172,3.3000
141333,1.8108,3.3000
141334,1.8180,3.3000
141335,1.8180,3.3000
141336,1.8180,3.3000
141337,1.8180,3.3000
141338,1.8051,3.3000
141339,1.8180,3.3000
141340,1.8196,3.3000
141341,1.8059,3.3000
141342,1.8180,3.3000
141343,1.8180,3.3000
141344,1.8108,3.3000
141345,1.8221,3.3000
141346,1.8180,3.3000
141347,1.8212,3.3000
141348,1.8180,3.3000
141349,1.8221,3.3000
141350,1.8204,3.3000
141351,1.8180,3.3000
141352,1.8221,3.3000
141353,1.8221,3.3000
141354,1.8253,3.3000
141355,1.8204,3.3000
141356,1.8229,3.3000
141357,1.8229,3.3000
141358,1.8237,3.3000
141359,1.8261,3.3000
141360,1.8269,3.3000
141361,1.8221,3.3000
141362,1.8261,3.3000
141363,1.8253,3.3000
141364,1.8188,3.3000
141365,1.8261,3.3000
141366,1.8237,3.3000
141367,1.8317,3.3000
141368,1.8237,3.3000
141369,1.8204,3.3000
141370,1.8301,3.3000
141371,1.8309,3.3000
141372,1.8229,3.3000
141373,1.8309,3.3000
141374,1.8253,3.3000
141375,1.8285,3.3000
141376,1.8285,3.3000
141377,1.8261,3.3000
141378,1.8309,3.3000
141379,1.8309,3.3000
141380,1.8285,3.3000
141381,1.8390,3.3000
141382,1.8398,3.3000
141383,1.8269,3.3000
141384,1.8366,3.3000
141385,1.8309,3.3000
141386,1.8366,3.3000
141387,1.8349,3.3000
141388,1.8333,3.3000
141389,1.8309,3.3000
141390,1.8382,3.3000
141391,1.8390,3.3000
141392,1.8341,3.3000
141393,1.8333,3.3000
141394,1.8366,3.3000
141395,1.8301,3.3000
141396,1.8285,3.3000
141397,1.8341,3.3000
141398,1.8406,3.3000
141399,1.8366,3.3000
141400,1.8414,3.3000
141401,1.8309,3.3000
141402,1.8382,3.3000
141403,1.8430,3.3000
141404,1.8406,3.3000
141405,1.8366,3.3000
141406,1.8390,3.3000
141407,1.8317,3.3000
141408,1.8438,3.3000
141409,1.8285,3.3000
141410,1.8390,3.3000
141411,1.8382,3.3000
141412,1.8358,3.3000
141413,1.8430,3.3000
141414,1.8438,3.3000
141415,1.8438,3.3000
141416,1.8382,3.3000
141417,1.8422,3.3000
141418,1.8390,3.3000
141419,1.8366,3.3000
141420,1.8438,3.3000
141421,1.8454,3.3000
141422,1.8406,3.3000
141423,1.8382,3.3000
141424,1.8438,3.3000
141425,1.8438,3.3000
141426,1.8430,3.3000
141427,1.8438,3.3000
141428,1.8406,3.3000
141429,1.8422,3.3000
141430,1.8478,3.3000
141431,1.8486,3.3000
141432,1.8478,3.3000
141433,1.8495,3.3000
141434,1.8430,3.3000
141435,1.8495,3.3000
141436,1.8454,3.3000
141437,1.8495,3.3000
141438,1.8478,3.3000
141439,1.8438,3.3000
141440,1.8478,3.3000
141441,1.8559,3.3000
141442,1.8478,3.3000
141443,1.8503,3.3000
141444,1.8511,3.3000
141445,1.8543,3.3000
141446,1.8470,3.3000
141447,1.8519,3.3000
141448,1.8438,3.3000
141449,1.8358,3.3000
141450,1.8478,3.3000
141451,1.8478,3.3000
141452,1.8567,3.3000
141453,1.8495,3.3000
141454,1.8511,3.3000
141455,1.8559,3.3000
141456,1.8551,3.3000
141457,1.8551,3.3000
141458,1.8551,3.3000
141459,1.8551,3.3000
141460,1.8478,3.3000
141461,1.8559,3.3000
141462,1.8583,3.3000
141463,1.8535,3.3000
141464,1.8527,3.3000
141465,1.8535,3.3000
141466,1.8543,3.3000
141467,1.8575,3.3000
141468,1.8607,3.3000
141469,1.8519,3.3000
141470,1.8551,3.3000
141471,1.8567,3.3000
141472,1.8656,3.3000
141473,1.8607,3.3000
141474,1.8567,3.3000
141475,1.8486,3.3000
141476,1.8462,3.3000
141477,1.8648,3.3000
141478,1.8591,3.3000
141479,1.8511,3.3000
141480,1.8591,3.3000
141481,1.8559,3.3000
141482,1.8559,3.3000
141483,1.8575,3.3000
141484,1.8591,3.3000
141485,1.8607,3.3000
141486,1.8607,3.3000
141487,1.8591,3.3000
141488,1.8567,3.3000
141489,1.8575,3.3000
141490,1.8567,3.3000
141491,1.8575,3.3000
141492,1.8599,3.3000
141493,1.8575,3.3000
141494,1.8583,3.3000
141495,1.8583,3.2927
141496,1.8567,3.2879
141497,1.8591,3.2645
141498,1.8543,3.2549
141499,1.8623,3.2242
141500,1.8575,3.2154
141501,1.8591,3.1848
141502,1.8559,3.1590
141503,1.8583,3.1316
141504,1.8567,3.1130
141505,1.8672,3.1066
141506,1.8672,3.1018
141507,1.8640,3.0679
141508,1.8591,3.0993
141509,1.8583,3.1010
141510,1.8623,3.1018
141511,1.8567,3.1227
141512,1.8648,3.1147
141513,1.8583,3.1090
141514,1.8656,3.1195
141515,1.8623,3.1292
141516,1.8615,3.1324
141517,1.8623,3.1380
141518,1.8623,3.1429
141519,1.8583,3.1453
141520,1.8615,3.1533
141521,1.8607,3.1590
141522,1.8615,3.1703
141523,1.8615,3.1493
141524,1.8680,3.1872
141525,1.8543,3.1840
141526,1.8567,3.1920
141527,1.8607,3.1977
141528,1.8648,3.1985
141529,1.8615,3.2049
141530,1.8623,3.2178
141531,1.8575,3.2194
141532,1.8648,3.2218
141533,1.8623,3.2323
141534,1.8648,3.2347
141535,1.8648,3.2412
141536,1.8567,3.2363
141537,1.8640,3.2500
141538,1.8599,3.2492
141539,1.8615,3.2621
141540,1.8656,3.2194
141541,1.8656,3.2629
141542,1.8696,3.2621
141543,1.8672,3.2678
141544,1.8640,3.2742
141545,1.8672,3.2863
141546,1.8640,3.2807
141547,1.8664,3.2662
141548,1.8696,3.2790
141549,1.8672,3.2605
141550,1.8672,3.2887
141551,1.8688,3.2887
141552,1.8656,3.2927
141553,1.8656,3.2919
141554,1.8680,3.2927
141555,1.8664,3.2936
141556,1.8672,3.2984
141557,1.8656,3.2936
141558,1.8640,3.2903
141559,1.8672,3.2927
141560,1.8615,3.2968
141561,1.8696,3.2911
141562,1.8623,3.3000
141563,1.8648,3.3000
141564,1.8640,3.3000
141565,1.8696,3.2960
141566,1.8696,3.2936
141567,1.8712,3.2976
141568,1.8648,3.2952
141569,1.8648,3.2984
141570,1.8648,3.2984
141571,1.8648,3.2670
141572,1.8648,3.2774
141573,1.8656,3.2984
141574,1.8704,3.3000
141575,1.8696,3.2984
141576,1.8607,3.3000
141577,1.8672,3.2984
141578,1.8623,3.3000
141579,1.8648,3.2879
141580,1.8623,3.3000
141581,1.8696,3.2871
141582,1.8623,3.2710
141583,1.8696,3.2879
141584,1.8607,3.2774
141585,1.8648,3.2621
141586,1.8664,3.2468
141587,1.8656,3.2500
141588,1.8688,3.2420
141589,1.8656,3.2444
141590,1.8680,3.2251
141591,1.8656,3.2371
141592,1.8640,3.2122
141593,1.8599,3.2025
141594,1.8640,3.2170
141595,1.8648,3.1952
141596,1.8623,3.1872
141597,1.8656,3.1807
141598,1.8640,3.1791
141599,1.8623,3.1799
141600,1.8656,3.1646
141601,1.8680,3.1558
141602,1.8672,3.1566
141603,1.8640,3.1848
141604,1.8607,3.1421
141605,1.8648,3.1421
141606,1.8559,3.1372
141607,1.8640,3.1348
141608,1.8648,3.1332
141609,1.8648,3.1114
141610,1.8607,3.1163
141611,1.8575,3.1114
141612,1.8543,3.1058
141613,1.8567,3.1082
141614,1.8607,3.1082
141615,1.8575,3.1090
141616,1.8591,3.1066
141617,1.8591,3.0969
141618,1.8607,3.0961
141619,1.8591,3.0993
141620,1.8551,3.0921
141621,1.8495,3.0856
141622,1.8567,3.0873
141623,1.8583,3.0953
141624,1.8591,3.0848
141625,1.8535,3.0832
141626,1.8575,3.0832
141627,1.8648,3.0558
141628,1.8543,3.0808
141629,1.8519,3.0808
141630,1.8462,3.0816
141631,1.8583,3.0776
141632,1.8591,3.0808
141633,1.8495,3.0816
141634,1.8486,3.0768
141635,1.8527,3.0744
141636,1.8543,3.0727
141637,1.8478,3.0695
141638,1.8462,3.0760
141639,1.8511,3.0784
141640,1.8575,3.0727
141641,1.8527,3.0703
141642,1.8495,3.0800
141643,1.8559,3.0792
141644,1.8486,3.0719
141645,1.8478,3.0816
141646,1.8470,3.0760
141647,1.8559,3.0808
141648,1.8543,3.0752
141649,1.8519,3.0816
141650,1.8527,3.0816
141651,1.8478,3.0816
141652,1.8519,3.0824
141653,1.8511,3.0881
141654,1.8486,3.0929
141655,1.8519,3.0937
141656,1.8478,3.0969
141657,1.8527,3.1074
141658,1.8478,3.1074
141659,1.8495,3.1195
141660,1.8535,3.1275
141661,1.8527,3.1445
141662,1.8454,3.1501
141663,1.8543,3.1549
141664,1.8527,3.1775
141665,1.8511,3.1888
141666,1.8519,3.2025
141667,1.8551,3.2162
141668,1.8559,3.2315
141669,1.8543,3.2589
141670,1.8382,3.2549
141671,1.8470,3.2670
141672,1.8527,3.2807
141673,1.8543,3.2855
141674,1.8559,3.2992
141675,1.8495,3.3000
141676,1.8551,3.3000
141677,1.8486,3.3000
141678,1.8543,3.3000
141679,1.8511,3.3000
141680,1.8438,3.3000
141681,1.8478,3.3000
141682,1.8551,3.3000
141683,1.8462,3.3000
141684,1.8478,3.3000
141685,1.8519,3.3000
141686,1.8438,3.3000
141687,1.8470,3.3000
141688,1.8543,3.3000
141689,1.8486,3.3000
141690,1.8567,3.3000
141691,1.8543,3.3000
141692,1.8543,3.3000
141693,1.8535,3.3000
141694,1.8454,3.3000
141695,1.8519,3.3000
141696,1.8543,3.3000
141697,1.8567,3.3000
141698,1.8527,3.3000
141699,1.8519,3.3000
141700,1.8511,3.3000
141701,1.8543,3.3000
141702,1.8495,3.3000
141703,1.8543,3.3000
141704,1.8543,3.3000
141705,1.8559,3.3000
141706,1.8591,3.3000
141707,1.8519,3.3000
141708,1.8688,3.3000
141709,1.8527,3.3000
141710,1.8519,3.3000
141711,1.8535,3.3000
141712,1.8559,3.3000
141713,1.8495,3.3000
141714,1.8478,3.3000
141715,1.8551,3.3000
141716,1.8543,3.3000
141717,1.8519,3.3000
141718,1.8527,3.3000
141719,1.8551,3.3000
141720,1.8486,3.3000
141721,1.8454,3.3000
141722,1.8511,3.3000
141723,1.8495,3.3000
141724,1.8519,3.3000
141725,1.8495,3.3000
141726,1.8478,3.3000
141727,1.8527,3.3000
141728,1.8486,3.3000
141729,1.8462,3.3000
141730,1.8527,3.3000
141731,1.8543,3.3000
141732,1.8478,3.3000
141733,1.8478,3.3000
141734,1.8478,3.3000
141735,1.8495,3.3000
141736,1.8495,3.3000
141737,1.8454,3.3000
141738,1.8446,3.3000
141739,1.8486,3.3000
141740,1.8575,3.3000
141741,1.8486,3.3000
141742,1.8519,3.3000
141743,1.8462,3.3000
141744,1.8527,3.3000
141745,1.8478,3.3000
141746,1.8462,3.3000
141747,1.8511,3.3000
141748,1.8486,3.3000
141749,1.8478,3.3000
141750,1.8462,3.3000
141751,1.8495,3.3000
141752,1.8519,3.3000
141753,1.8495,3.3000
141754,1.8462,3.3000
141755,1.8446,3.3000
141756,1.8527,3.3000
141757,1.8478,3.3000
141758,1.8567,3.3000
141759,1.8462,3.3000
141760,1.8462,3.3000
141761,1.8478,3.3000
141762,1.8438,3.3000
141763,1.8567,3.3000
141764,1.8486,3.3000
141765,1.8511,3.3000
141766,1.8446,3.3000
141767,1.8486,3.3000
141768,1.8446,3.3000
141769,1.8559,3.3000
141770,1.8503,3.3000
141771,1.8495,3.3000
141772,1.8551,3.3000
141773,1.8495,3.3000
141774,1.8519,3.3000
141775,1.8446,3.3000
141776,1.8575,3.3000
141777,1.8527,3.3000
141778,1.8575,3.3000
141779,1.8519,3.3000
141780,1.8495,3.3000
141781,1.8543,3.3000
141782,1.8486,3.3000
141783,1.8551,3.3000
141784,1.8519,3.3000
141785,1.8511,3.3000
141786,1.8495,3.3000
141787,1.8527,3.3000
141788,1.8559,3.3000
141789,1.8543,3.3000
141790,1.8486,3.3000
141791,1.8486,3.3000
141792,1.8527,3.3000
141793,1.8559,3.3000
141794,1.8511,3.3000
141795,1.8527,3.3000
141796,1.8543,3.3000
141797,1.8559,3.3000
141798,1.8551,3.3000
141799,1.8583,3.3000
141800,1.8551,3.3000
141801,1.8559,3.3000
141802,1.8551,3.3000
141803,1.8768,3.3000
141804,1.8551,3.3000
141805,1.8454,3.3000
141806,1.8527,3.3000
141807,1.8527,3.3000
141808,1.8438,3.3000
141809,1.8422,3.3000
141810,1.8559,3.3000
141811,1.8551,3.3000
141812,1.8567,3.3000
141813,1.8543,3.3000
141814,1.8567,3.3000
141815,1.8543,3.3000
141816,1.8527,3.3000
141817,1.8575,3.3000
141818,1.8591,3.3000
141819,1.8527,3.3000
141820,1.8559,3.3000
141821,1.8567,3.3000
141822,1.8559,3.3000
141823,1.8527,3.3000
141824,1.8462,3.3000
141825,1.8559,3.3000
141826,1.8607,3.3000
141827,1.8543,3.3000
141828,1.8688,3.3000
141829,1.8551,3.3000
141830,1.8438,3.3000
141831,1.8527,3.3000
141832,1.8527,3.3000
141833,1.8567,3.3000
141834,1.8591,3.3000
141835,1.8575,3.3000
141836,1.8567,3.3000
141837,1.8559,3.3000
141838,1.8559,3.3000
141839,1.8543,3.3000
141840,1.8591,3.3000
141841,1.8519,3.3000
141842,1.8567,3.3000
141843,1.8575,3.3000
141844,1.8591,3.3000
141845,1.8615,3.3000
141846,1.8543,3.3000
141847,1.8583,3.3000
141848,1.8777,3.3000
141849,1.8551,3.3000
141850,1.8559,3.3000
141851,1.8720,3.3000
141852,1.8551,3.3000
141853,1.8744,3.3000
141854,1.8575,3.3000
141855,1.8559,3.3000
141856,1.8559,3.3000
141857,1.8559,3.3000
141858,1.8591,3.3000
141859,1.8486,3.3000
141860,1.8527,3.3000
141861,1.8567,3.3000
141862,1.8567,3.3000
141863,1.8688,3.3000
141864,1.8511,3.3000
141865,1.8575,3.3000
141866,1.8543,3.3000
141867,1.8559,3.3000
141868,1.8486,3.3000
141869,1.8615,3.3000
141870,1.8559,3.3000
141871,1.8607,3.3000
141872,1.8567,3.3000
141873,1.8430,3.3000
141874,1.8575,3.3000
141875,1.8567,3.3000
141876,1.8495,3.3000
141877,1.8551,3.3000
141878,1.8575,3.3000
141879,1.8623,3.3000
141880,1.8567,3.3000
141881,1.8575,3.3000
141882,1.8632,3.3000
141883,1.8607,3.3000
141884,1.8543,3.3000
141885,1.8623,3.3000
141886,1.8527,3.3000
141887,1.8535,3.3000
141888,1.8559,3.3000
141889,1.8551,3.3000
141890,1.8575,3.3000
141891,1.8551,3.3000
141892,1.8575,3.3000
141893,1.8599,3.3000
141894,1.8591,3.3000
141895,1.8559,3.3000
141896,1.8567,3.3000
141897,1.8583,3.3000
141898,1.8527,3.3000
141899,1.8527,3.3000
141900,1.8583,3.3000
141901,1.8511,3.3000
141902,1.8567,3.3000
141903,1.8567,3.3000
141904,1.8623,3.3000
141905,1.8575,3.3000
141906,1.8567,3.3000
141907,1.8607,3.3000
141908,1.8623,3.3000
141909,1.8446,3.3000
141910,1.8575,3.3000
141911,1.8559,3.3000
141912,1.8543,3.3000
141913,1.8664,3.3000
141914,1.8559,3.3000
141915,1.8535,3.3000
141916,1.8559,3.3000
141917,1.8615,3.3000
141918,1.8503,3.3000
141919,1.8567,3.3000
141920,1.8599,3.3000
141921,1.8527,3.3000
141922,1.8623,3.3000
141923,1.8495,3.3000
141924,1.8559,3.3000
141925,1.8551,3.3000
141926,1.8543,3.3000
141927,1.8551,3.3000
141928,1.8535,3.3000
141929,1.8591,3.3000
141930,1.8559,3.3000
141931,1.8607,3.3000
141932,1.8567,3.3000
141933,1.8567,3.3000
141934,1.8486,3.3000
141935,1.8583,3.3000
141936,1.8583,3.3000
141937,1.8567,3.3000
141938,1.8527,3.3000
141939,1.8575,3.3000
141940,1.8527,3.3000
141941,1.8486,3.3000
141942,1.8567,3.3000
141943,1.8527,3.3000
141944,1.8559,3.3000
141945,1.8519,3.3000
141946,1.8535,3.3000
141947,1.8527,3.3000
141948,1.8575,3.3000
141949,1.8567,3.3000
141950,1.8511,3.3000
141951,1.8567,3.3000
141952,1.8567,3.3000
141953,1.8575,3.3000
141954,1.8543,3.3000
141955,1.8527,3.3000
141956,1.8527,3.3000
141957,1.8527,3.3000
141958,1.8583,3.3000
141959,1.8446,3.3000
141960,1.8551,3.3000
141961,1.8486,3.3000
141962,1.8470,3.3000
141963,1.8454,3.3000
141964,1.8559,3.3000
141965,1.8527,3.3000
141966,1.8519,3.3000
141967,1.8478,3.3000
141968,1.8559,3.3000
141969,1.8519,3.3000
141970,1.8519,3.3000
141971,1.8527,3.3000
141972,1.8495,3.3000
141973,1.8454,3.3000
141974,1.8470,3.3000
141975,1.8543,3.3000
141976,1.8462,3.3000
141977,1.8519,3.3000
141978,1.8470,3.3000
141979,1.8486,3.3000
141980,1.8527,3.3000
141981,1.8527,3.3000
141982,1.8438,3.3000
141983,1.8454,3.3000
141984,1.8438,3.3000
141985,1.8470,3.3000
141986,1.8495,3.3000
141987,1.8486,3.3000
141988,1.8462,3.3000
141989,1.8462,3.3000
141990,1.8398,3.3000
141991,1.8446,3.3000
141992,1.8454,3.3000
141993,1.8438,3.3000
141994,1.8462,3.3000
141995,1.8438,3.3000
141996,1.8438,3.3000
141997,1.8438,3.3000
141998,1.8422,3.3000
141999,1.8414,3.3000
142000,1.8438,3.3000
142001,1.8414,3.3000
142002,1.8519,3.3000
142003,1.8422,3.3000
142004,1.8358,3.3000
142005,1.8422,3.3000
142006,1.8414,3.3000
142007,1.8430,3.3000
142008,1.8430,3.3000
142009,1.8438,3.3000
142010,1.8422,3.3000
142011,1.8366,3.3000
142012,1.8430,3.3000
142013,1.8414,3.3000
142014,1.8398,3.3000
142015,1.8406,3.3000
142016,1.8430,3.3000
142017,1.8422,3.3000
142018,1.8325,3.3000
142019,1.8398,3.3000
142020,1.8390,3.3000
142021,1.8349,3.3000
142022,1.8390,3.3000
142023,1.8366,3.3000
142024,1.8325,3.3000
142025,1.8358,3.3000
142026,1.8333,3.3000
142027,1.8325,3.3000
142028,1.8366,3.3000
142029,1.8398,3.3000
142030,1.8422,3.3000
142031,1.8366,3.3000
142032,1.8366,3.3000
142033,1.8285,3.3000
142034,1.8293,3.3000
142035,1.8341,3.3000
142036,1.8398,3.3000
142037,1.8293,3.3000
142038,1.8358,3.3000
142039,1.8382,3.3000
142040,1.8309,3.3000
142041,1.8349,3.3000
142042,1.8325,3.3000
142043,1.8285,3.3000
142044,1.8285,3.3000
142045,1.8317,3.3000
142046,1.8285,3.3000
142047,1.8253,3.3000
142048,1.8301,3.3000
142049,1.8325,3.3000
142050,1.8333,3.3000
142051,1.8325,3.3000
142052,1.8333,3.3000
142053,1.8277,3.3000
142054,1.8285,3.3000
142055,1.8261,3.3000
142056,1.8277,3.3000
142057,1.8204,3.3000
142058,1.8253,3.3000
142059,1.8301,3.3000
142060,1.8285,3.3000
142061,1.8253,3.3000
142062,1.8237,3.3000
142063,1.8293,3.3000
142064,1.8285,3.3000
142065,1.8285,3.3000
142066,1.8309,3.3000
142067,1.8309,3.3000
142068,1.8301,3.3000
142069,1.8285,3.3000
142070,1.8293,3.3000
142071,1.8269,3.3000
142072,1.8269,3.3000
142073,1.8285,3.3000
142074,1.8285,3.3000
142075,1.8261,3.3000
142076,1.8261,3.3000
142077,1.8253,3.3000
142078,1.8261,3.3000
142079,1.8221,3.3000
142080,1.8229,3.3000
142081,1.8237,3.3000
142082,1.8269,3.3000
142083,1.8196,3.3000
142084,1.8253,3.3000
142085,1.8180,3.3000
142086,1.8204,3.3000
142087,1.8261,3.2927
142088,1.8229,3.2790
142089,1.8180,3.2597
142090,1.8237,3.2484
142091,1.8269,3.2202
142092,1.8269,3.2105
142093,1.8188,3.1711
142094,1.8180,3.1791
142095,1.8164,3.1437
142096,1.8180,3.1461
142097,1.8172,3.1332
142098,1.8196,3.1219
142099,1.8132,3.1090
142100,1.8180,3.0953
142101,1.8148,3.0824
142102,1.8188,3.0993
142103,1.8172,3.0655
142104,1.8180,3.0518
142105,1.8180,3.0300
142106,1.8156,3.0252
142107,1.8180,3.0179
142108,1.8180,3.0075
142109,1.8164,2.9970
142110,1.8164,2.9922
142111,1.8156,2.9825
142112,1.8156,2.9744
142113,1.8180,2.9696
142114,1.8156,2.9632
142115,1.8132,2.9527
142116,1.8108,2.9438
142117,1.8140,2.9398
142118,1.8100,2.9309
142119,1.8124,2.9261
142120,1.8188,2.9196
142121,1.8156,2.9140
142122,1.8092,2.9051
142123,1.8059,2.9011
142124,1.8075,2.9003
142125,1.8156,2.8874
142126,1.8108,2.8810
142127,1.8100,2.8793
142128,1.8124,2.8801
142129,1.8124,2.8713
142130,1.8067,2.8624
142131,1.8059,2.8616
142132,1.8116,2.8519
142133,1.8164,2.8415
142134,1.8100,2.8447
142135,1.8108,2.8447
142136,1.8132,2.8350
142137,1.8100,2.8374
142138,1.8092,2.8358
142139,1.8067,2.8302
142140,1.8124,2.8245
142141,1.8075,2.8245
142142,1.8140,2.8237
142143,1.8108,2.8213
142144,1.8140,2.8213
142145,1.8092,2.8125
142146,1.8075,2.8262
142147,1.8092,2.8084
142148,1.8140,2.8028
142149,1.8075,2.8036
142150,1.8092,2.8020
142151,1.8108,2.7996
142152,1.8067,2.7988
142153,1.8092,2.8004
142154,1.8067,2.7971
142155,1.8067,2.7955
142156,1.8132,2.7931
142157,1.8067,2.7923
142158,1.8075,2.7842
142159,1.8075,2.7842
142160,1.8075,2.7842
142161,1.8059,2.7826
142162,1.8092,2.7834
142163,1.8092,2.7826
142164,1.8084,2.7834
142165,1.8075,2.7794
142166,1.8075,2.7794
142167,1.8059,2.7778
142168,1.8067,2.7722
142169,1.8100,2.7746
142170,1.8108,2.7730
142171,1.8043,2.7762
142172,1.8051,2.7714
142173,1.8092,2.7722
142174,1.8043,2.7714
142175,1.8075,2.7697
142176,1.8059,2.7722
142177,1.8100,2.7689
142178,1.8059,2.7681
142179,1.8075,2.7770
142180,1.8100,2.7593
142181,1.8092,2.7552
142182,1.8067,2.7649
142183,1.8108,2.7649
142184,1.8059,2.7641
142185,1.8108,2.7633
142186,1.8092,2.7641
142187,1.8092,2.7641
142188,1.8067,2.7577
142189,1.8027,2.7641
142190,1.8116,2.7641
142191,1.8051,2.7593
142192,1.8051,2.7601
142193,1.8100,2.7609
142194,1.8075,2.7601
142195,1.8067,2.7585
142196,1.8092,2.7673
142197,1.8027,2.7577
142198,1.8075,2.7617
142199,1.8092,2.7577
142200,1.8075,2.7609
142201,1.8100,2.7585
142202,1.8084,2.7568
142203,1.8051,2.7568
142204,1.8075,2.7585
142205,1.8100,2.7601
142206,1.8043,2.7593
142207,1.8100,2.7633
142208,1.8092,2.7585
142209,1.8075,2.7585
142210,1.8100,2.7568
142211,1.8140,2.7544
142212,1.8067,2.7552
142213,1.8124,2.7552
142214,1.8035,2.7552
142215,1.8043,2.7472
142216,1.8140,2.7593
142217,1.8092,2.7609
142218,1.8092,2.7593
142219,1.8075,2.7601
142220,1.8075,2.7552
142221,1.8084,2.7601
142222,1.8132,2.7585
142223,1.8003,2.7568
142224,1.8140,2.7609
142225,1.8092,2.7593
142226,1.8092,2.7577
142227,1.8156,2.7536
142228,1.8204,2.7343
142229,1.8059,2.7125
142230,1.8100,2.6779
142231,1.8075,2.6432
142232,1.8035,2.6070
142233,1.7979,2.5747
142234,1.7947,2.5409
142235,1.7938,2.5086
142236,1.7922,2.4748
142237,1.7882,2.4627
142238,1.7850,2.4603
142239,1.7898,2.4667
142240,1.7906,2.4853
142241,1.8011,2.4966
142242,1.7882,2.5103
142243,1.7922,2.5119
142244,1.7930,2.5030
142245,1.7947,2.4724
142246,1.7930,2.4595
142247,1.7914,2.4329
142248,1.7922,2.4071
142249,1.7922,2.3829
142250,1.7874,2.3555
142251,1.7818,2.3297
142252,1.7769,2.3080
142253,1.7769,2.2870
142254,1.7745,2.2878
142255,1.7753,2.2951
142256,1.7793,2.3128
142257,1.7793,2.3305
142258,1.7761,2.3426
142259,1.7818,2.3676
142260,1.7866,2.3676
142261,1.7842,2.3604
142262,1.7850,2.3442
142263,1.7793,2.3289
142264,1.7866,2.3080
142265,1.7834,2.2878
142266,1.7922,2.2685
142267,1.7721,2.2451
142268,1.7705,2.2250
142269,1.7721,2.2048
142270,1.7745,2.1968
142271,1.7673,2.2032
142272,1.7737,2.2153
142273,1.7689,2.2435
142274,1.7753,2.2564
142275,1.7753,2.2806
142276,1.7713,2.2927
142277,1.7793,2.2911
142278,1.7874,2.2878
142279,1.7801,2.2766
142280,1.7890,2.2564
142281,1.7753,2.2379
142282,1.7866,2.2218
142283,1.7737,2.2024
142284,1.7753,2.1790
142285,1.7697,2.1645
142286,1.7673,2.1508
142287,1.7713,2.1500
142288,1.7632,2.1533
142289,1.7648,2.1750
142290,1.7713,2.1968
142291,1.7689,2.2218
142292,1.7753,2.2492
142293,1.7769,2.2508
142294,1.7713,2.2556
142295,1.7818,2.2435
142296,1.7753,2.2306
142297,1.7793,2.2129
142298,1.7664,2.1919
142299,1.7761,2.1807
142300,1.7785,2.1533
142301,1.7689,2.1291
142302,1.7721,2.1089
142303,1.7673,2.0977
142304,1.7664,2.1017
142305,1.7681,2.1089
142306,1.7632,2.1259
142307,1.7656,2.1533
142308,1.7689,2.1815
142309,1.8027,2.2064
142310,1.7753,2.2201
142311,1.7753,2.2089
142312,1.7769,2.2040
142313,1.7777,2.1903
142314,1.7705,2.1718
142315,1.7745,2.1533
142316,1.7689,2.1331
142317,1.7721,2.1186
142318,1.7673,2.1017
142319,1.7681,2.0807
142320,1.7664,2.0622
142321,1.7624,2.0622
142322,1.7382,2.0912
142323,1.7544,2.1170
142324,1.7681,2.1476
142325,1.7681,2.1807
142326,1.7697,2.1428
142327,1.7721,2.2032
142328,1.7777,2.1976
142329,1.7761,2.1911
142330,1.7705,2.1718
142331,1.7785,2.1573
142332,1.7721,2.1444
142333,1.7753,2.1218
142334,1.7664,2.1065
142335,1.7664,2.0896
142336,1.7673,2.0622
142337,1.7648,2.0622
142338,1.7576,2.0622
142339,1.7648,2.0968
142340,1.7648,2.1251
142341,1.7705,2.1533
142342,1.7656,2.1782
142343,1.7689,2.1968
142344,1.7761,2.2008
142345,1.7785,2.1919
142346,1.7753,2.1847
142347,1.7753,2.1686
142348,1.7721,2.1452
142349,1.7664,2.1291
142350,1.7689,2.1122
142351,1.7753,2.1009
142352,1.7681,2.0622
142353,1.7624,2.0614
142354,1.7479,2.0622
142355,1.7664,2.0622
142356,1.7640,2.0993
142357,1.7664,2.1355
142358,1.7664,2.1589
142359,1.7664,2.1807
142360,1.7737,2.1919
142361,1.7737,2.1952
142362,1.7705,2.1831
142363,1.7777,2.1726
142364,1.7721,2.1541
142365,1.7721,2.1412
142366,1.7664,2.1275
142367,1.7721,2.1017
142368,1.7673,2.0888
142369,1.7624,2.0622
142370,1.7656,2.0558
142371,1.7681,2.0606
142372,1.7656,2.0799
142373,1.7664,2.1017
142374,1.7648,2.1379
142375,1.7536,2.1589
142376,1.7705,2.1887
142377,1.7689,2.1863
142378,1.7761,2.1790
142379,1.7729,2.1686
142380,1.7729,2.1573
142381,1.7721,2.1412
142382,1.7721,2.1267
142383,1.7705,2.1073
142384,1.7713,2.0888
142385,1.7648,2.0622
142386,1.7664,2.0525
142387,1.7608,2.0429
142388,1.7592,2.0590
142389,1.7584,2.0622
142390,1.7640,2.1065
142391,1.7648,2.1291
142392,1.7664,2.1557
142393,1.7664,2.1847
142394,1.7729,2.1944
142395,1.7753,2.1936
142396,1.7769,2.1823
142397,1.7664,2.1702
142398,1.7753,2.1516
142399,1.7689,2.1363
142400,1.7689,2.1275
142401,1.7898,2.1017
142402,1.7664,2.0622
142403,1.7681,2.0622
142404,1.7648,2.0622
142405,1.7681,2.0622
142406,1.7632,2.0993
142407,1.7624,2.1251
142408,1.7664,2.1541
142409,1.7673,2.1895
142410,1.7721,2.2129
142411,1.7705,2.2193
142412,1.7793,2.2201
142413,1.7753,2.2048
142414,1.7793,2.1710
142415,1.7801,2.1790
142416,1.7810,2.1653
142417,1.7785,2.1460
142418,1.7745,2.1533
142419,1.7721,2.1122
142420,1.7721,2.0985
142421,1.7713,2.0977
142422,1.7705,2.1146
142423,1.7624,2.1315
142424,1.7584,2.1581
142425,1.7705,2.1936
142426,1.7777,2.2306
142427,1.7777,2.2540
142428,1.7850,2.2580
142429,1.7850,2.2588
142430,1.7818,2.2451
142431,1.7922,2.2330
142432,1.7834,2.2193
142433,1.7777,2.1976
142434,1.7801,2.1750
142435,1.7834,2.1541
142436,1.7753,2.1388
142437,1.7769,2.1275
142438,1.7777,2.1347
142439,1.7721,2.1492
142440,1.7801,2.1686
142441,1.7793,2.2016
142442,1.7818,2.2347
142443,1.7810,2.2580
142444,1.7842,2.2830
142445,1.7882,2.2935
142446,1.7858,2.2935
142447,1.7914,2.2790
142448,1.7818,2.2637
142449,1.7842,2.2637
142450,1.7898,2.2250
142451,1.7842,2.2016
142452,1.7818,2.1831
142453,1.7810,2.1742
142454,1.7818,2.1637
142455,1.7769,2.1662
142456,1.7818,2.1790
142457,1.7801,2.2048
142458,1.7793,2.2314
142459,1.7850,2.2475
142460,1.7834,2.2733
142461,1.7850,2.3064
142462,1.7874,2.3096
142463,1.7947,2.2967
142464,1.7874,2.2830
142465,1.7914,2.2685
142466,1.7842,2.2532
142467,1.7890,2.2185
142468,1.7882,2.2089
142469,1.7769,2.1887
142470,1.7785,2.1662
142471,1.7745,2.1734
142472,1.7761,2.1823
142473,1.7777,2.2064
142474,1.7745,2.2161
142475,1.7818,2.2564
142476,1.7810,2.2814
142477,1.7850,2.3056
142478,1.7898,2.3160
142479,1.7963,2.3168
142480,1.8075,2.3168
142481,1.8124,2.2911
142482,1.8164,2.2822
142483,1.8204,2.2564
142484,1.8180,2.2435
142485,1.8253,2.2177
142486,1.8188,2.2024
142487,1.8229,2.1919
142488,1.8180,2.2032
142489,1.8204,2.2161
142490,1.8196,2.2306
142491,1.8261,2.2564
142492,1.8229,2.2798
142493,1.8269,2.3072
142494,1.8285,2.3338
142495,1.8301,2.3547
142496,1.8390,2.3596
142497,1.8438,2.3539
142498,1.8462,2.3314
142499,1.8486,2.3233
142500,1.8478,2.3080
142501,1.8438,2.2846
142502,1.8438,2.2685
142503,1.8438,2.2475
142504,1.8438,2.2484
142505,1.8438,2.2556
142506,1.8438,2.2677
142507,1.8438,2.2878
142508,1.8454,2.3104
142509,1.8454,2.3370
142510,1.8486,2.3644
142511,1.8462,2.3668
142512,1.8511,2.4063
142513,1.8575,2.4039
142514,1.8648,2.3942
142515,1.8640,2.3821
142516,1.8688,2.3684
142517,1.8672,2.3475
142518,1.8656,2.3241
142519,1.8615,2.3080
142520,1.8607,2.2846
142521,1.8559,2.2830
142522,1.8559,2.2943
142523,1.8607,2.3080
142524,1.8591,2.3338
142525,1.8672,2.3797
142526,1.8623,2.3829
142527,1.8607,2.4023
142528,1.8623,2.4410
142529,1.8696,2.4264
142530,1.8704,2.4377
142531,1.8712,2.4256
142532,1.8865,2.4095
142533,1.8801,2.3894
142534,1.8768,2.3708
142535,1.8752,2.3547
142536,1.8696,2.3297
142537,1.8768,2.3152
142538,1.8728,2.3152
142539,1.8696,2.3249
142540,1.8704,2.3483
142541,1.8736,2.3684
142542,1.8704,2.3910
142543,1.8696,2.4160
142544,1.8736,2.4377
142545,1.8736,2.4724
142546,1.8833,2.4627
142547,1.8857,2.4651
142548,1.8897,2.4458
142549,1.8914,2.4313
142550,1.8930,2.4087
142551,1.8914,2.3845
142552,1.8954,2.3596
142553,1.8841,2.3378
142554,1.8865,2.3297
142555,1.8777,2.3362
142556,1.8849,2.3507
142557,1.8833,2.3652
142558,1.8849,2.3870
142559,1.8825,2.4152
142560,1.8833,2.4410
142561,1.8873,2.4627
142562,1.8897,2.4740
142563,1.8962,2.4748
142564,1.8986,2.4716
142565,1.9042,2.4555
142566,1.9010,2.4321
142567,1.9010,2.4111
142568,1.8970,2.3902
142569,1.8994,2.3684
142570,1.8954,2.3467
142571,1.8954,2.3305
142572,1.8946,2.3426
142573,1.8905,2.3628
142574,1.8946,2.3813
142575,1.8954,2.4039
142576,1.8962,2.4305
142577,1.8954,2.4369
142578,1.8962,2.4708
142579,1.8970,2.4885
142580,1.9051,2.4748
142581,1.9099,2.4627
142582,1.9075,2.4458
142583,1.9107,2.4256
142584,1.9083,2.4055
142585,1.9059,2.3845
142586,1.8978,2.3612
142587,1.8978,2.3451
142588,1.9010,2.3426
142589,1.8978,2.3547
142590,1.8962,2.3668
142591,1.8954,2.3894
142592,1.8954,2.4127
142593,1.9010,2.4385
142594,1.8986,2.4619
142595,1.9010,2.4885
142596,1.9083,2.4829
142597,1.9139,2.4708
142598,1.9188,2.4538
142599,1.9179,2.4345
142600,1.9155,2.4119
142601,1.9155,2.3910
142602,1.9171,2.3716
142603,1.9099,2.3515
142604,1.9083,2.3338
142605,1.9107,2.3378
142606,1.9067,2.3499
142607,1.9042,2.3708
142608,1.9075,2.3934
142609,1.9083,2.4168
142610,1.9067,2.4410
142611,1.9107,2.4651
142612,1.9163,2.4708
142613,1.9228,2.4643
142614,1.9228,2.4611
142615,1.9212,2.4353
142616,1.9220,2.4192
142617,1.9260,2.3966
142618,1.9212,2.3853
142619,1.9212,2.3588
142620,1.9188,2.3354
142621,1.9099,2.3273
142622,1.9115,2.3346
142623,1.9123,2.3515
142624,1.9099,2.3708
142625,1.9155,2.3934
142626,1.9171,2.4192
142627,1.9123,2.4418
142628,1.9131,2.4643
142629,1.9220,2.4627
142630,1.9236,2.4587
142631,1.9300,2.4418
142632,1.9300,2.4248
142633,1.9341,2.4111
142634,1.9284,2.3853
142635,1.9292,2.3716
142636,1.9220,2.3467
142637,1.9212,2.3289
142638,1.9196,2.3281
142639,1.9196,2.3362
142640,1.9171,2.3596
142641,1.9188,2.3757
142642,1.9212,2.4039
142643,1.9171,2.4264
142644,1.9204,2.4490
142645,1.9236,2.4547
142646,1.9316,2.4490
142647,1.9357,2.4377
142648,1.9462,2.4200
142649,1.9429,2.4031
142650,1.9421,2.3894
142651,1.9421,2.3612
142652,1.9365,2.3442
142653,1.9357,2.3217
142654,1.9300,2.3152
142655,1.9268,2.3160
142656,1.9292,2.3289
142657,1.9316,2.3467
142658,1.9268,2.3725
142659,1.9228,2.3974
142660,1.9292,2.4232
142661,1.9333,2.4321
142662,1.9437,2.4385
142663,1.9526,2.4313
142664,1.9486,2.4184
142665,1.9550,2.4071
142666,1.9574,2.3902
142667,1.9526,2.3596
142668,1.9510,2.3459
142669,1.9510,2.3265
142670,1.9453,2.3080
142671,1.9453,2.3056
142672,1.9429,2.3080
142673,1.9405,2.3249
142674,1.9421,2.3467
142675,1.9429,2.3725
142676,1.9357,2.3990
142677,1.9413,2.4184
142678,1.9445,2.4281
142679,1.9429,2.4289
142680,1.9421,2.4224
142681,1.9413,2.4031
142682,1.9373,2.3870
142683,1.9316,2.3700
142684,1.9292,2.3475
142685,1.9220,2.3338
142686,1.9204,2.3104
142687,1.9155,2.2911
142688,1.9075,2.2903
142689,1.9091,2.2991
142690,1.9083,2.3177
142691,1.9083,2.3410
142692,1.9083,2.3652
142693,1.9091,2.3894
142694,1.9067,2.4111
142695,1.9107,2.4136
142696,1.9107,2.4079
142697,1.9075,2.3990
142698,1.9010,2.3829
142699,1.9042,2.3620
142700,1.9002,2.3442
142701,1.8946,2.3209
142702,1.8946,2.3056
142703,1.8897,2.2814
142704,1.8849,2.2709
142705,1.8825,2.2741
142706,1.8801,2.2846
142707,1.8801,2.3064
142708,1.8809,2.3289
142709,1.8817,2.3491
142710,1.8841,2.3781
142711,1.8841,2.3878
142712,1.8857,2.3894
142713,1.8849,2.3781
142714,1.8849,2.3628
142715,1.8809,2.3507
142716,1.8744,2.3297
142717,1.8752,2.3201
142718,1.8720,2.2911
142719,1.8696,2.2749
142720,1.8640,2.2564
142721,1.8623,2.2435
142722,1.8632,2.2524
142723,1.8575,2.2693
142724,1.8599,2.2862
142725,1.8599,2.3080
142726,1.8615,2.3338
142727,1.8688,2.3596
142728,1.8672,2.3813
142729,1.8688,2.3636
142730,1.8688,2.3539
142731,1.8696,2.3346
142732,1.8680,2.3201
142733,1.8672,2.3040
142734,1.8615,2.2838
142735,1.8567,2.2653
142736,1.8567,2.2459
142737,1.8543,2.2274
142738,1.8495,2.2210
142739,1.8438,2.2306
142740,1.8495,2.2459
142741,1.8527,2.2709
142742,1.8535,2.2935
142743,1.8543,2.3152
142744,1.8583,2.3233
142745,1.8591,2.3233
142746,1.8607,2.3128
142747,1.8607,2.3056
142748,1.8615,2.2870
142749,1.8559,2.2693
142750,1.8559,2.2492
142751,1.8559,2.2258
142752,1.8519,2.2137
142753,1.8470,2.2000
142754,1.8454,2.1790
142755,1.8438,2.1790
142756,1.8430,2.1927
142757,1.8438,2.2105
142758,1.8309,2.2322
142759,1.8543,2.2596
142760,1.8527,2.2685
142761,1.8519,2.2669
142762,1.8575,2.2580
142763,1.8559,2.2484
142764,1.8591,2.2322
142765,1.8519,2.2169
142766,1.8486,2.2048
142767,1.8462,2.1863
142768,1.8454,2.1645
142769,1.8406,2.1436
142770,1.8349,2.1275
142771,1.8349,2.1194
142772,1.8333,2.1275
142773,1.8317,2.1492
142774,1.8285,2.1710
142775,1.8454,2.2048
142776,1.8390,2.2282
142777,1.8430,2.2379
142778,1.8414,2.2427
142779,1.8366,2.2298
142780,1.8398,2.2169
142781,1.8382,2.2024
142782,1.8317,2.1863
142783,1.8349,2.1710
142784,1.8269,2.1500
142785,1.8269,2.1355
142786,1.8285,2.1154
142787,1.8180,2.1033
142788,1.8196,2.1105
142789,1.8075,2.1275
142790,1.8180,2.1500
142791,1.8221,2.1766
142792,1.8180,2.2040
142793,1.8293,2.2218
142794,1.8285,2.2185
142795,1.8301,2.2097
142796,1.8277,2.2032
142797,1.8261,2.1911
142798,1.8221,2.1774
142799,1.8277,2.1500
142800,1.8156,2.1331
142801,1.8156,2.1218
142802,1.8100,2.1009
142803,1.8132,2.0832
142804,1.8084,2.0864
142805,1.8067,2.0944
142806,1.8043,2.1130
142807,1.7979,2.1404
142808,1.8075,2.1686
142809,1.8100,2.1976
142810,1.8140,2.2048
142811,1.8180,2.2048
142812,1.8140,2.1968
142813,1.8140,2.1815
142814,1.8140,2.1702
142815,1.8164,2.1533
142816,1.8180,2.1331
142817,1.8092,2.1194
142818,1.8035,2.1017
142819,1.8051,2.0791
142820,1.8027,2.0622
142821,1.8051,2.0622
142822,1.7938,2.0888
142823,1.7922,2.1170
142824,1.8019,2.1428
142825,1.7963,2.1734
142826,1.8067,2.1976
142827,1.8293,2.2000
142828,1.8059,2.2048
142829,1.8027,2.1839
142830,1.8092,2.1742
142831,1.8027,2.1589
142832,1.8043,2.1412
142833,1.8043,2.1251
142834,1.8011,2.1130
142835,1.8051,2.0960
142836,1.7922,2.0622
142837,1.7922,2.0622
142838,1.7898,2.0799
142839,1.7914,2.0968
142840,1.7906,2.1259
142841,1.7906,2.1525
142842,1.7898,2.1831
142843,1.7963,2.1911
142844,1.7906,2.2000
142845,1.8067,2.1936
142846,1.8051,2.1823
142847,1.8051,2.1686
142848,1.8011,2.1516
142849,1.7963,2.1363
142850,1.7922,2.1154
142851,1.7834,2.1017
142852,1.7922,2.0622
142853,1.7898,2.0622
142854,1.7922,2.0622
142855,1.7834,2.0840
142856,1.7834,2.1041
142857,1.7842,2.1331
142858,1.7922,2.1573
142859,1.8035,2.1863
142860,1.7971,2.1968
142861,1.7971,2.1992
142862,1.7979,2.1903
142863,1.7979,2.1742
142864,1.7995,2.1589
142865,1.7930,2.1444
142866,1.7955,2.1275
142867,1.7922,2.1114
142868,1.7914,2.0936
142869,1.7898,2.0622
142870,1.7858,2.0872
142871,1.7826,2.0622
142872,1.7850,2.0872
142873,1.7818,2.1130
142874,1.7818,2.1347
142875,1.7842,2.1678
142876,1.7922,2.1895
142877,1.7947,2.1927
142878,1.7922,2.1960
142879,1.7922,2.1782
142880,1.8003,2.1645
142881,1.7922,2.1508
142882,1.7850,2.1275
142883,1.7874,2.1146
142884,1.7858,2.1009
142885,1.7810,2.0799
142886,1.7785,2.0541
142887,1.7753,2.0606
142888,1.7801,2.0622
142889,1.7737,2.0880
142890,1.7664,2.1154
142891,1.7753,2.1444
142892,1.7769,2.1726
142893,1.7898,2.1839
142894,1.7874,2.1879
142895,1.7890,2.1782
142896,1.7882,2.1750
142897,1.7930,2.1589
142898,1.7842,2.1420
142899,1.7898,2.1275
142900,1.7810,2.1138
142901,1.7818,2.0920
142902,1.7793,2.0622
142903,1.7834,2.0590
142904,1.7769,2.0606
142905,1.7737,2.0622
142906,1.7697,2.1017
142907,1.7785,2.1275
142908,1.7810,2.1589
142909,1.7930,2.1790
142910,1.7826,2.1927
142911,1.7874,2.1919
142912,1.7850,2.1831
142913,1.7898,2.1718
142914,1.7890,2.1581
142915,1.7898,2.1412
142916,1.7801,2.1251
142917,1.7834,2.1065
142918,1.7721,2.0944
142919,1.7793,2.0622
142920,1.7785,2.0872
142921,1.7769,2.0622
142922,1.7785,2.0928
142923,1.7761,2.1146
142924,1.7785,2.1404
142925,1.7818,2.1742
142926,1.7818,2.1976
142927,1.7842,2.2048
142928,1.7866,2.1960
142929,1.7842,2.2000
142930,1.7826,2.1879
142931,1.7882,2.1847
142932,1.7882,2.1533
142933,1.7890,2.1347
142934,1.7818,2.1194
142935,1.7850,2.1009
142936,1.7882,2.0896
142937,1.7785,2.0904
142938,1.7793,2.1033
142939,1.7834,2.1146
142940,1.7769,2.1533
142941,1.7801,2.1702
142942,1.7874,2.1960
142943,1.7906,2.2314
142944,1.7922,2.2524
142945,1.7922,2.2524
142946,1.7914,2.2435
142947,1.7979,2.2347
142948,1.7963,2.2161
142949,1.7930,2.2024
142950,1.7930,2.1815
142951,1.7947,2.1645
142952,1.7922,2.1428
142953,1.7906,2.1388
142954,1.7874,2.1412
142955,1.7906,2.1541
142956,1.7906,2.1766
142957,1.7914,2.2032
142958,1.7963,2.2282
142959,1.7922,2.2580
142960,1.7963,2.2870
142961,1.7971,2.3185
142962,1.7979,2.3475
142963,1.8003,2.3716
142964,1.8035,2.3999
142965,1.8156,2.4168
142966,1.8140,2.4385
142967,1.8180,2.4514
142968,1.8188,2.4651
142969,1.8188,2.4837
142970,1.8221,2.4998
142971,1.8261,2.4893
142972,1.8212,2.5070
142973,1.8317,2.5191
142974,1.8325,2.5296
142975,1.8309,2.5368
142976,1.8317,2.5417
142977,1.8349,2.5522
142978,1.8366,2.5779
142979,1.8358,2.5651
142980,1.8349,2.5683
142981,1.8325,2.5771
142982,1.8422,2.5868
142983,1.8341,2.5908
142984,1.8406,2.5925
142985,1.8414,2.6005
142986,1.8438,2.6070
142987,1.8406,2.6150
142988,1.8438,2.6086
142989,1.8438,2.6182
142990,1.8438,2.6263
142991,1.8430,2.6207
142992,1.8446,2.6319
142993,1.8454,2.6408
142994,1.8470,2.6408
142995,1.8486,2.6456
142996,1.8438,2.6432
142997,1.8438,2.6505
142998,1.8438,2.6569
142999,1.8438,2.6601
143000,1.8446,2.6650
143001,1.8478,2.6666
143002,1.8495,2.6642
143003,1.8454,2.6747
143004,1.8478,2.6690
143005,1.8543,2.6867
143006,1.8478,2.6843
143007,1.8462,2.6892
143008,1.8462,2.6859
143009,1.8495,2.7061
143010,1.8438,2.6948
143011,1.8495,2.7158
143012,1.8495,2.7004
143013,1.8454,2.7053
143014,1.8462,2.7061
143015,1.8486,2.7061
143016,1.8511,2.7166
143017,1.8462,2.7166
143018,1.8519,2.7190
143019,1.8478,2.7198
143020,1.8511,2.7158
143021,1.8438,2.7214
143022,1.8486,2.7214
143023,1.8486,2.7037
143024,1.8495,2.7286
143025,1.8495,2.7295
143026,1.8559,2.7311
143027,1.8462,2.7351
143028,1.8511,2.7351
143029,1.8527,2.7286
143030,1.8478,2.7415
143031,1.8486,2.7407
143032,1.8495,2.7407
143033,1.8519,2.7391
143034,1.8470,2.7464
143035,1.8527,2.7432
143036,1.8462,2.7456
143037,1.8478,2.7762
143038,1.8495,2.7472
143039,1.8495,2.7496
143040,1.8438,2.7520
143041,1.8478,2.7472
143042,1.8486,2.7722
143043,1.8511,2.7536
143044,1.8462,2.7544
143045,1.8551,2.7512
143046,1.8438,2.7577
143047,1.8535,2.7254
143048,1.8511,2.7577
143049,1.8519,2.7826
143050,1.8462,2.7625
143051,1.8446,2.7609
143052,1.8478,2.7633
143053,1.8495,2.7617
143054,1.8486,2.7593
143055,1.8486,2.7641
143056,1.8478,2.7673
143057,1.8462,2.7681
143058,1.8527,2.7714
143059,1.8478,2.7697
143060,1.8462,2.7673
143061,1.8535,2.7762
143062,1.8551,2.7722
143063,1.8519,2.7875
143064,1.8495,2.7738
143065,1.8438,2.7754
143066,1.8519,2.7762
143067,1.8511,2.7770
143068,1.8495,2.7762
143069,1.8519,2.7722
143070,1.8438,2.7834
143071,1.8495,2.7826
143072,1.8478,2.7834
143073,1.8495,2.7851
143074,1.8422,2.7883
143075,1.8462,2.7931
143076,1.8462,2.7923
143077,1.8438,2.8262
143078,1.8519,2.7875
143079,1.8495,2.7988
143080,1.8438,2.7979
143081,1.8454,2.7971
143082,1.8478,2.7988
143083,1.8511,2.7979
143084,1.8478,2.7979
143085,1.8519,2.7988
143086,1.8543,2.7988
143087,1.8543,2.8012
143088,1.8486,2.8052
143089,1.8495,2.8165
143090,1.8478,2.8092
143091,1.8543,2.8036
143092,1.8519,2.8108
143093,1.8462,2.8278
143094,1.8495,2.8181
143095,1.8478,2.8197
143096,1.8495,2.8270
143097,1.8535,2.8253
143098,1.8519,2.8390
143099,1.8495,2.8374
143100,1.8511,2.8382
143101,1.8495,2.8439
143102,1.8495,2.8495
143103,1.8559,2.8503
143104,1.8486,2.8608
143105,1.8495,2.8527
143106,1.8478,2.8664
143107,1.8478,2.8721
143108,1.8527,2.8761
143109,1.8446,2.8858
143110,1.8462,2.8874
143111,1.8543,2.9108
143112,1.8495,2.9132
143113,1.8486,2.9188
143114,1.8462,2.9317
143115,1.8543,2.9438
143116,1.8575,2.9527
143117,1.8454,2.9656
143118,1.8551,2.9768
143119,1.8583,2.9897
143120,1.8495,3.0042
143121,1.8543,3.0026
143122,1.8543,3.0292
143123,1.8567,3.0421
143124,1.8527,3.0558
143125,1.8543,3.0736
143126,1.8519,3.0832
143127,1.8583,3.0945
143128,1.8575,3.1122
143129,1.8559,3.1211
143130,1.8567,3.1251
143131,1.8583,3.1485
143132,1.8615,3.1606
143133,1.8575,3.1767
143134,1.8607,3.1848
143135,1.8567,3.1952
143136,1.8591,3.2122
143137,1.8623,3.2178
143138,1.8607,3.2242
143139,1.8656,3.2734
143140,1.8640,3.2549
143141,1.8664,3.2662
143142,1.8615,3.2710
143143,1.8591,3.2960
143144,1.8607,3.2968
143145,1.8607,3.2960
143146,1.8567,3.3000
143147,1.8591,3.3000
143148,1.8688,3.3000
143149,1.8656,3.3000
143150,1.8688,3.3000
143151,1.8672,3.3000
143152,1.8607,3.3000
143153,1.8640,3.3000
143154,1.8648,3.3000
143155,1.8623,3.3000
143156,1.8688,3.3000
143157,1.8696,3.3000
143158,1.8640,3.3000
143159,1.8696,3.3000
143160,1.8688,3.3000
143161,1.8680,3.3000
143162,1.8672,3.3000
143163,1.8648,3.3000
143164,1.8696,3.3000
143165,1.8712,3.3000
143166,1.8696,3.3000
143167,1.8672,3.3000
143168,1.8696,3.3000
143169,1.8696,3.3000
143170,1.8728,3.3000
143171,1.8704,3.3000
143172,1.8704,3.3000
143173,1.8688,3.3000
143174,1.8623,3.3000
143175,1.8696,3.3000
143176,1.8720,3.3000
143177,1.8712,3.3000
143178,1.8720,3.3000
143179,1.8688,3.3000
143180,1.8664,3.3000
143181,1.8704,3.3000
143182,1.8736,3.3000
143183,1.8712,3.3000
143184,1.8752,3.3000
143185,1.8744,3.3000
143186,1.8712,3.3000
143187,1.8720,3.3000
143188,1.8640,3.3000
143189,1.8704,3.3000
143190,1.8704,3.3000
143191,1.8752,3.3000
143192,1.8696,3.3000
143193,1.8728,3.3000
143194,1.8768,3.3000
143195,1.8744,3.3000
143196,1.8720,3.3000
143197,1.8736,3.3000
143198,1.8768,3.3000
143199,1.8752,3.3000
143200,1.8736,3.3000
143201,1.8752,3.3000
143202,1.8793,3.3000
143203,1.8785,3.3000
143204,1.8752,3.3000
143205,1.8785,3.3000
143206,1.8511,3.3000
143207,1.8785,3.3000
143208,1.8841,3.3000
143209,1.8817,3.3000
143210,1.8841,3.3000
143211,1.8760,3.3000
143212,1.8825,3.3000
143213,1.8801,3.3000
143214,1.8801,3.3000
143215,1.8849,3.3000
143216,1.8793,3.3000
143217,1.8817,3.3000
143218,1.8881,3.3000
143219,1.8849,3.3000
143220,1.8833,3.3000
143221,1.8785,3.3000
143222,1.8801,3.3000
143223,1.8873,3.3000
143224,1.8833,3.3000
143225,1.8841,3.3000
143226,1.8865,3.3000
143227,1.8881,3.3000
143228,1.8849,3.3000
143229,1.8905,3.3000
143230,1.8873,3.3000
143231,1.8881,3.3000
143232,1.8841,3.3000
143233,1.8857,3.3000
143234,1.8897,3.3000
143235,1.8849,3.3000
143236,1.8857,3.3000
143237,1.8865,3.3000
143238,1.8849,3.3000
143239,1.8897,3.3000
143240,1.8680,3.3000
143241,1.8946,3.3000
143242,1.8946,3.3000
143243,1.8946,3.3000
143244,1.8930,3.3000
143245,1.8865,3.3000
143246,1.8905,3.3000
143247,1.8930,3.3000
143248,1.8865,3.3000
143249,1.8970,3.3000
143250,1.8962,3.3000
143251,1.8938,3.3000
143252,1.8954,3.3000
143253,1.8946,3.3000
143254,1.8970,3.3000
143255,1.8914,3.3000
143256,1.8978,3.3000
143257,1.8954,3.3000
143258,1.8946,3.3000
143259,1.8930,3.3000
143260,1.8954,3.3000
143261,1.8994,3.3000
143262,1.8962,3.3000
143263,1.8970,3.3000
143264,1.9002,3.3000
143265,1.8954,3.3000
143266,1.8954,3.3000
143267,1.8986,3.3000
143268,1.8970,3.3000
143269,1.9051,3.3000
143270,1.8994,3.3000
143271,1.9034,3.3000
143272,1.9059,3.3000
143273,1.8978,3.3000
143274,1.9042,3.3000
143275,1.9091,3.3000
143276,1.9163,3.3000
143277,1.8994,3.3000
143278,1.9010,3.3000
143279,1.9042,3.3000
143280,1.9034,3.3000
143281,1.9083,3.3000
143282,1.9067,3.3000
143283,1.9067,3.3000
143284,1.9010,3.3000
143285,1.9059,3.3000
143286,1.9075,3.3000
143287,1.9099,3.3000
143288,1.9059,3.3000
143289,1.9091,3.3000
143290,1.9099,3.3000
143291,1.9083,3.3000
143292,1.9139,3.3000
143293,1.9123,3.3000
143294,1.9075,3.3000
143295,1.9099,3.3000
143296,1.9059,3.3000
143297,1.9155,3.3000
143298,1.9139,3.3000
143299,1.9075,3.3000
143300,1.9196,3.3000
143301,1.9123,3.3000
143302,1.9188,3.3000
143303,1.9051,3.3000
143304,1.9034,3.3000
143305,1.9026,3.3000
143306,1.9131,3.3000
143307,1.9163,3.3000
143308,1.9212,3.3000
143309,1.9139,3.3000
143310,1.9034,3.3000
143311,1.9155,3.3000
143312,1.9099,3.3000
143313,1.8946,3.3000
143314,1.9139,3.3000
143315,1.9188,3.3000
143316,1.9115,3.3000
143317,1.9196,3.3000
143318,1.9212,3.3000
143319,1.9204,3.3000
143320,1.9196,3.2774
143321,1.9212,3.2500
143322,1.8954,3.2202
143323,1.9196,3.1936
143324,1.9010,3.1582
143325,1.9212,3.1130
143326,1.9212,3.0695
143327,1.9188,3.0381
143328,1.9139,3.0204
143329,1.9107,3.0034
143330,1.9188,3.0042
143331,1.9389,2.9954
143332,1.9115,2.9938
143333,1.9365,2.9986
143334,1.9139,2.9962
143335,1.9123,3.0067
143336,1.9179,3.0188
143337,1.9171,3.0276
143338,1.9131,3.0228
143339,1.9155,3.0389
143340,1.9196,3.0470
143341,1.9131,3.0582
143342,1.9139,3.0663
143343,1.9212,3.0816
143344,1.9123,3.0856
143345,1.9260,3.0953
143346,1.9196,3.1066
143347,1.9196,3.1090
143348,1.9268,3.1187
143349,1.9139,3.1219
143350,1.9204,3.1340
143351,1.9188,3.1316
143352,1.9171,3.0985
143353,1.9212,3.1332
143354,1.9155,3.1372
143355,1.9196,3.1356
143356,1.9139,3.1074
143357,1.9188,3.1404
143358,1.9220,3.1356
143359,1.9163,3.1340
143360,1.9196,3.1332
143361,1.9188,3.1324
143362,1.9155,3.1332
143363,1.9171,3.1316
143364,1.9212,3.1227
143365,1.9220,3.1187
143366,1.9212,3.1074
143367,1.9139,3.1122
143368,1.9196,3.1082
143369,1.9212,3.1106
143370,1.9188,3.1098
143371,1.9212,3.1034
143372,1.9212,3.0558
143373,1.9163,3.1010
143374,1.9163,3.1235
143375,1.9163,3.0977
143376,1.9212,3.0945
143377,1.9155,3.0856
143378,1.9188,3.0599
143379,1.9188,3.0832
143380,1.9155,3.0897
143381,1.9365,3.0800
143382,1.9212,3.0744
143383,1.9139,3.0776
143384,1.9196,3.0703
143385,1.9171,3.0711
143386,1.9147,3.0695
143387,1.9139,3.0679
143388,1.9131,3.0607
143389,1.9212,3.0744
143390,1.9204,3.0558
143391,1.9131,3.0582
143392,1.9220,3.0582
143393,1.9212,3.0574
143394,1.9252,3.0574
143395,1.9188,3.0590
143396,1.9188,3.0518
143397,1.9179,3.0550
143398,1.9212,3.0526
143399,1.9171,3.0550
143400,1.9196,3.0486
143401,1.9276,3.0518
143402,1.9171,3.0510
143403,1.9196,3.0510
143404,1.9212,3.0333
143405,1.9171,3.0510
